f.eid,ECG_I_filtered_mean,ECG_I_filtered_std,ECG_I_filtered_max,ECG_I_filtered_min,ECG_I_dynamic_mean,ECG_I_dynamic_std,ECG_I_dynamic_max,ECG_I_dynamic_min,ECG_II_filtered_mean,ECG_II_filtered_std,ECG_II_filtered_max,ECG_II_filtered_min,ECG_II_dynamic_mean,ECG_II_dynamic_std,ECG_II_dynamic_max,ECG_II_dynamic_min,ECG_III_filtered_mean,ECG_III_filtered_std,ECG_III_filtered_max,ECG_III_filtered_min,ECG_III_dynamic_mean,ECG_III_dynamic_std,ECG_III_dynamic_max,ECG_III_dynamic_min,ECG_aVR_filtered_mean,ECG_aVR_filtered_std,ECG_aVR_filtered_max,ECG_aVR_filtered_min,ECG_aVR_dynamic_mean,ECG_aVR_dynamic_std,ECG_aVR_dynamic_max,ECG_aVR_dynamic_min,ECG_aVL_filtered_mean,ECG_aVL_filtered_std,ECG_aVL_filtered_max,ECG_aVL_filtered_min,ECG_aVL_dynamic_mean,ECG_aVL_dynamic_std,ECG_aVL_dynamic_max,ECG_aVL_dynamic_min,ECG_aVF_filtered_mean,ECG_aVF_filtered_std,ECG_aVF_filtered_max,ECG_aVF_filtered_min,ECG_aVF_dynamic_mean,ECG_aVF_dynamic_std,ECG_aVF_dynamic_max,ECG_aVF_dynamic_min,ECG_V1_filtered_mean,ECG_V1_filtered_std,ECG_V1_filtered_max,ECG_V1_filtered_min,ECG_V1_dynamic_mean,ECG_V1_dynamic_std,ECG_V1_dynamic_max,ECG_V1_dynamic_min,ECG_V2_filtered_mean,ECG_V2_filtered_std,ECG_V2_filtered_max,ECG_V2_filtered_min,ECG_V2_dynamic_mean,ECG_V2_dynamic_std,ECG_V2_dynamic_max,ECG_V2_dynamic_min,ECG_V3_filtered_mean,ECG_V3_filtered_std,ECG_V3_filtered_max,ECG_V3_filtered_min,ECG_V3_dynamic_mean,ECG_V3_dynamic_std,ECG_V3_dynamic_max,ECG_V3_dynamic_min,ECG_V4_filtered_mean,ECG_V4_filtered_std,ECG_V4_filtered_max,ECG_V4_filtered_min,ECG_V4_dynamic_mean,ECG_V4_dynamic_std,ECG_V4_dynamic_max,ECG_V4_dynamic_min,ECG_V5_filtered_mean,ECG_V5_filtered_std,ECG_V5_filtered_max,ECG_V5_filtered_min,ECG_V5_dynamic_mean,ECG_V5_dynamic_std,ECG_V5_dynamic_max,ECG_V5_dynamic_min,ECG_V6_filtered_mean,ECG_V6_filtered_std,ECG_V6_filtered_max,ECG_V6_filtered_min,ECG_V6_dynamic_mean,ECG_V6_dynamic_std,ECG_V6_dynamic_max,ECG_V6_dynamic_min
1000038,8.791666666666666,15.616815634294833,150.0,-14.0,11.5506,53.71183332972353,781.5,-92.0,11.745,13.124149813733968,99.0,-15,24.4694,50.85537398977615,820.25,-97.0,2.2683333333333335,10.709481650491876,49,-72.0,12.9188,20.660750387147125,108,-98.0,-11.431666666666667,13.493899753427678,11.0,-123.0,-17.759,51.27206372870123,95.0,-684.0,2.881666666666667,11.649077097445197,105.0,-29.0,-0.4398,31.775392616929217,542.0,-60.0,7.215,9.142871995895673,49,-22,18.9412,28.027967149973612,413.0,-51.0,1.3466666666666667,19.379107879936637,23.0,-136.0,101.7552,31.278274775952717,339,-83.0,0.0,8.000888458744436,8.75,-12.0,12.327,29.443866441077333,286.0,-155.0,7.871666666666667,19.49115689799408,40.0,-113.0,69.182,32.480007327585376,319.0,-86,9.915,21.996464299215603,78.0,-126.0,10.8114,36.87008313036465,319.0,-159.0,12.243333333333334,18.735459843717624,112.0,-88,-3.3578,33.41704623631478,353.0,-139.0,0.0,9.639205098626073,41.75,-1.0,0.0,16.196505308079914,0.0,0.0
1000056,6.615,12.800655256665575,86.0,-29.0,-24.8998,47.371731654648215,85.0,-438.0,7.821666666666666,32.997068514574984,299.0,-54,24.157,89.55399237889957,366.0,-637.0,0.46,28.447818897061335,237,-112.0,49.0568,50.789089121188226,326,-202.0,-8.448333333333334,20.609965159817445,35.0,-183.0,0.6268,66.9896195075028,538.0,-205.0,2.7716666666666665,14.60101128537183,91.0,-88.0,-36.73,20.172701851759967,120.0,-146.0,4.38,30.12378240969528,267,-80,36.8558,68.83332482424483,344.0,-419.0,-9.186666666666667,20.95817634136032,67.0,-176.0,21.2742,42.69386155362384,120,-288.0,-7.453333333333333,20.8425323690658,61.0,-184.0,-30.542,42.287097748604126,52.0,-352.0,0.895,35.866520716865374,172.0,-272.0,84.6274,57.89730364395219,297.0,-250,16.433333333333334,76.46028076451503,385.0,-333.5,-7.5854,107.58679057783999,411.0,-615.0,8.348333333333333,37.050150659462766,172.0,-247,36.6146,52.89063874486675,245.0,-253.0,1.5566666666666666,36.327264171999275,298.0,-94.0,7.9174,57.43304081484803,368.0,-289.0
1000061,10.681666666666667,24.288206957744375,179.0,-56.0,-23.1842,31.03131757370286,218.0,-121.0,11.08,16.311456096866397,139.0,-14,-6.8622,30.047748853449903,173.0,-79.0,-0.135,11.252115726979229,42,-72.0,16.322,28.587639216976278,81,-112.0,-12.096666666666666,19.95605143531377,34.0,-160.0,15.28,26.99239152057483,88.0,-193.0,4.973333333333334,17.10699532030359,121.0,-49.0,-19.507,25.779021529142646,137.0,-94.0,5.581666666666667,7.001428227313498,55,-26,4.9812,24.892827211066244,81.0,-78.0,-6.818333333333333,18.34262787122451,64.0,-120.0,47.2464,20.515839905789868,127,-73.0,0.07333333333333333,11.764974382556991,78.0,-43.0,-2.081,17.009868870746768,97.0,-65.0,5.3133333333333335,15.386850085561878,85.0,-10.0,26.5472,19.357888139257575,118.0,5,11.625,27.88071690254754,244.0,-8.0,13.1714,29.806697603726583,264.0,-17.0,13.613333333333333,35.29599347738431,309.0,-28,68.3064,38.382877941082015,398.0,9.0,12.653333333333334,26.62523531455742,223.0,-26.0,51.0284,29.073995140675112,285.0,-6.0
1000232,12.1,21.06276335146934,140.0,-41.0,-1.5466,32.15812538752842,158.0,-90.0,12.716666666666667,13.791774924046416,69.0,-38,24.215,17.439724051715956,94.0,-41.0,0.041666666666666664,15.447111830011748,40,-130.0,25.7616,24.94133848533394,96,-132.0,-13.64,16.055333485584576,27.0,-103.0,-11.0858,22.66274560506736,51.0,-121.0,5.773333333333333,17.15348231571524,134.0,-37.0,-13.3998,27.416840809254445,144.0,-92.0,6.471666666666667,10.244634232394807,26,-64,25.24,14.301468456071214,64.0,-60.0,-3.151666666666667,14.359387076829645,35.0,-76.0,15.8308,18.874611820114342,70,-68.0,4.54,42.27913275679465,155.0,-190.0,39.9568,50.59045892023514,201.0,-170.0,7.198333333333333,41.43206082116709,207.0,-167.0,47.6304,51.63533476060749,269.0,-160,10.508333333333333,41.863189047446234,243.0,-154.0,46.305,50.31937971597027,304.0,-138.0,12.816666666666666,37.69314334936203,243.0,-125,28.5748,44.71081753848838,273.0,-117.0,12.521666666666667,26.770746420092376,186.0,-67.0,9.644,31.725706674556516,193.0,-83.0
1000267,11.9,23.05442835263253,186.0,-46.0,34.0718,29.08195049786035,234.0,-56.0,16.015,15.823867258037776,106.0,-6,40.6074,44.81147693660632,222.0,-54.0,3.441666666666667,17.19534618888365,110,-121.0,6.5356,34.896256713865455,162,-153.0,-15.158333333333333,17.832365627949894,12.0,-130.0,-37.0874,33.50085015697363,37.0,-196.0,4.051666666666667,18.70166651813564,153.0,-75.0,14.0132,23.01846705929828,179.0,-86.0,9.958333333333334,11.905178028441611,92,-27,23.822,37.43712483618367,173.0,-58.0,-9.445,12.911376443534852,17.0,-93.0,-22.7376,16.748801337409194,23,-123.0,-6.133333333333334,12.512482656220635,29.0,-83.0,-39.4514,15.26201946139501,7.0,-136.0,-3.473333333333333,12.166616945140138,30.0,-58.0,-29.6076,19.357888139257575,15.0,-111,0.36,12.64783646480466,43.0,-59.0,14.3838,18.28884401427075,72.0,-65.0,6.248333333333333,18.800797781536353,132.0,-83,13.3732,21.618795566821014,154.0,-95.0,10.621666666666666,21.52762250123212,165.0,-48.0,-7.5606,25.539379938440167,173.0,-96.0
1000343,5.376666666666667,17.911489484561454,149.0,-25.0,-29.0744,48.76415963225451,168.0,-245.0,6.631666666666667,29.915035192283423,227.0,-89,10.916,85.0966118244434,304.0,-322.0,0.75,16.98511603335893,115,-79.0,39.9904,56.77067119420026,208,-225.0,-7.183333333333334,23.120619705266456,49.0,-180.0,9.3306,63.28167273105223,259.0,-214.0,2.0216666666666665,8.97206018085528,84.0,-31.0,-34.2782,31.46513633785813,158.0,-157.0,3.901666666666667,22.569935693799,171,-83,25.6972,68.09384048619964,254.0,-252.0,-5.198333333333333,21.418971276780677,113.0,-156.0,-24.6722,31.323964422786588,125,-244.0,19.535,49.66258257816777,232.0,-216.0,50.7872,62.15598375184806,300.0,-242.0,5.636666666666667,45.56418171717293,242.0,-232.0,46.4754,53.63351745727666,308.0,-271,19.955,59.21874400615625,536.5,-123.0,59.2502,73.00586003849281,671.0,-161.0,13.695,70.29903500700104,537.75,-100,94.7164,91.59914175929815,879.0,-93.0,8.83,58.67334232852259,467.75,-92.0,-3.7068,82.63932256353509,594.0,-304.0
1000453,13.068333333333333,31.39682038926164,234.0,-2.0,-48.7438,36.147428145858456,194.0,-75.0,20.555,26.167606724090504,188.0,-22,4.0312,32.38342518264552,183.0,-55.0,6.601666666666667,10.872580062810401,50,-62.0,52.775,13.940716445003822,107,-29.0,-18.041666666666668,28.374165430702785,10.0,-210.0,22.6024,33.601451073428365,62.0,-186.0,3.263333333333333,19.37302219295918,146.0,-6.0,-50.5114,22.101463074647345,108.0,-69.0,13.83,12.573163219068354,87,-22,28.6468,17.172828822299486,114.0,-25.0,-4.92,50.34113890911356,55.0,-331.0,4.7156,58.52387817498085,84,-337.0,-3.89,78.89548719667052,120.0,-487.25,22.0516,93.15599034651503,172.0,-514.0,13.546666666666667,30.730622440093132,93.0,-154.0,14.8708,38.80054777139107,149.0,-173,21.986666666666668,47.9281040262971,379.0,-33.0,28.1076,59.23220088971876,487.0,-52.0,21.746666666666666,52.464996161462,414.0,-28,13.4958,64.92417409840498,479.0,-67.0,15.651666666666667,39.411550725080026,295.0,-25.0,16.8642,47.95404631894998,320.0,-43.0
1000724,13.793333333333333,17.8526549535045,139.0,-7.0,191.1656,44.484264371123416,374.0,102.0,16.133333333333333,26.415252328069016,218.0,-14,133.1116,35.261729189590234,373.0,71.0,1.8266666666666667,13.038786582943812,110,-13.0,-58.054,26.463225124689544,81,-134.0,-16.136666666666667,21.619003728715676,9.0,-176.0,-161.8896,37.89061376963957,-88.0,-366.0,5.74,8.260694078990376,50.0,-29.0,124.858,32.078999922067396,223.0,59.0,9.168333333333333,18.91198906925328,160,-11,37.7838,21.8466806989071,205.0,-7.0,0.2,28.71428216062522,99.0,-220.0,-80.1102,31.608373193823184,36,-317.0,8.408333333333333,39.59539026901434,205.0,-269.0,-59.4366,42.32906779554683,152.0,-352.0,6.658333333333333,26.73913979959382,166.0,-164.0,16.1292,29.47513031964405,193.0,-174,9.883333333333333,26.31469276954522,198.0,-76.0,62.9488,33.885415425518985,288.0,-62.0,9.738333333333333,29.51829710347277,246.0,-40,47.4332,31.968671191652618,307.0,-26.0,8.788333333333334,24.045169935399134,203.0,-12.0,2.163,26.61683735908532,213.0,-41.0
1000887,13.036666666666667,20.459683662157527,164.0,-32.0,98.8644,99.93275545405521,366.0,-86.0,19.835,21.319969707608244,181.0,-14,43.1444,66.9470174738203,310.0,-38.0,6.253333333333333,17.236661187390347,142,-63.0,-55.72,70.47561847901727,172,-230.0,-17.605,19.017947006271033,16.0,-158.0,-70.7552,77.41034344943834,51.0,-338.0,3.0866666666666664,15.563498606961382,101.0,-68.0,77.5418,79.72479070377044,258.0,-109.0,13.336666666666666,16.496767023335885,158,-11,-6.036,47.20173200212043,170.0,-97.0,-1.7233333333333334,12.345449454038611,11.0,-95.0,-43.5992,42.032731999716596,29,-187.0,14.311666666666667,32.18821519162288,161.0,-170.0,47.7046,50.83340770438275,239.0,-186.0,13.743333333333334,27.35307640630006,123.0,-168.0,-50.5572,42.079528611428145,98.0,-269,17.748333333333335,32.637529479964556,257.0,-96.0,47.0224,49.75749489514118,324.0,-100.0,15.891666666666667,31.077643581126857,251.0,-52,-65.6172,71.54402745275108,278.0,-200.0,13.466666666666667,26.830186150843026,217.0,-24.0,-57.3944,66.1091464824649,242.0,-172.0
1000891,9.62,12.19162007282051,97.0,-12.0,-29.3332,13.981622858595493,68.0,-63.0,21.948333333333334,24.525068750611535,217.0,-2,-3.2324,30.46200240036758,220.0,-53.0,11.486666666666666,13.044276735624539,120,-5.0,26.1008,19.108705852568878,170,-11.0,-16.991666666666667,18.24769201539989,1.0,-159.0,16.5292,21.69139800381709,49.0,-135.0,-0.875,3.926469062233495,8.0,-22.0,-27.4788,8.810669978645613,-9.0,-64.0,16.963333333333335,18.65668751115505,168,-3,11.681,24.445810254520094,195.0,-30.0,-5.6033333333333335,26.087915252511504,23.0,-207.0,-94.309,30.38187484339964,-55,-321.0,2.868333333333333,39.31625190540026,60.0,-255.0,-41.3262,45.60026966543071,31.0,-342.0,13.356666666666667,35.76333488675549,99.0,-204.0,-86.5296,42.12747706473768,24.0,-328,17.155,30.873413184594064,234.0,-61.0,-40.072,38.97392995323926,193.0,-148.0,13.89,22.72424329506559,192.0,-10,13.2496,30.930911720154647,218.0,-39.0,10.75,17.25217377607819,149.0,-2.0,9.11,25.38791641706739,172.0,-32.0
1001188,5.668333333333333,10.849193390396458,64.0,-66.0,240.0634,30.48055413603893,356.0,122.0,-2.84,4.897046729067088,16.0,-20,31.593,23.38011443513483,153.0,-41.0,-9.201666666666666,11.496999487789072,71,-65.0,-208.4704,23.1443194723889,-78,-294.0,-2.45,6.154199108467865,33.0,-33.0,-135.5786,24.576708934273523,-54.0,-213.0,7.18,10.876316778517747,64.0,-69.0,224.5182,24.407024987900513,325.0,117.0,-5.736666666666666,6.987893499156635,39,-33,-88.1906,17.57521754175464,33.0,-140.0,-17.739583333333332,34.39394310372427,3.0,-233.0,-262.29,47.19409602905855,-184,-514.0,5.273333333333333,31.84172245480588,68.0,-218.0,-224.1934,44.33753710390328,-122.0,-484.0,10.021666666666667,24.31298412828467,160.0,-111.0,-179.2062,35.732507350590446,20.0,-345,10.95,24.843594077078837,200.0,-50.0,-89.952,30.323695289327784,131.0,-191.0,16.251666666666665,24.31313082586353,203.0,-24,-175.1456,33.85746595124922,83.0,-261.0,8.208333333333334,14.695405083071224,115.0,-6.0,-278.0018,34.60234958438516,-70.25,-355.0
1001200,7.155,11.295617513000341,76.0,-19.0,129.888,35.473813665857804,250.0,50.0,11.815,18.05586077519799,135.0,-40,145.9156,33.53993554913306,298.0,45.0,4.125,8.581338765017962,69,-26.0,16.0276,20.7088589313849,101,-61.0,-10.636666666666667,14.547553822626751,28.0,-103.0,-137.657,32.93230254628425,-49.0,-259.0,1.0766666666666667,4.2638936301095605,32.0,-8.0,57.1786,23.718766874355,135.0,14.0,8.206666666666667,13.023208343398164,101,-32,81.2188,21.50214237140104,197.0,17.0,-11.41,15.155479757060371,43.0,-104.0,-279.4676,50.66219251315521,-145,-429.0,-7.196666666666666,11.714292789390043,44.0,-87.0,-155.1178,51.65249580765677,-25.0,-303.0,2.725,26.430336894056673,32.0,-190.0,-111.3254,59.21843222207085,32.0,-361,7.05,29.02701328073558,183.0,-150.0,-191.9386,83.77483888399905,102.0,-441.0,7.195,27.799406018834286,212.0,-106,-194.2046,90.0496570723065,137.0,-417.0,8.273333333333333,22.884171142711043,180.0,-61.0,-195.228,79.55390132482505,94.0,-363.0
1001289,12.543333333333333,23.51059595633897,188.0,-5.0,100.0212,56.789660595569686,344.0,-11.0,17.121666666666666,25.706163927915984,213.0,-2,68.2496,30.97701889853186,292.0,20.0,4.15,10.807597636231035,41,-42.0,-31.7716,63.70873906647345,110,-182.0,-15.985,24.113096890832303,0.0,-201.0,-83.8936,32.830642379338244,-28.0,-298.0,3.9566666666666666,12.934377535166593,88.0,-12.0,66.1414,58.323355579390324,227.0,-49.0,10.851666666666667,15.894537758473998,123,-17,18.4836,41.266830881956515,197.0,-77.0,-11.731666666666667,35.599199390186044,15.0,-268.0,-222.074,96.91326082636988,-26,-579.0,-1.98,38.032831431102615,44.0,-252.0,-187.0226,78.28778505769594,-18.0,-512.0,4.71,26.269232319705626,93.0,-147.0,-243.2166,137.25941455667075,68.0,-613,9.218333333333334,36.08264583640667,273.0,-59.0,-245.7074,120.94393488406105,205.0,-497.0,8.023333333333333,36.41001861514981,283.0,-25,-138.5942,109.4662227646501,268.0,-346.0,7.401666666666666,31.800267250798726,236.0,-27.0,-193.103,125.46049892695311,223.0,-393.0
1001320,12.638333333333334,27.051756515161003,205.0,-12.0,40.0426,53.62458750647878,329.0,-76.0,16.983333333333334,35.745858345952314,265.0,-14,-65.5156,54.899010525145165,251.0,-159.0,3.703333333333333,11.506026923119707,61,-15.0,-105.5582,83.17376877814303,45,-268.0,-15.955,31.279114037964693,12.0,-237.0,12.9892,34.869176694610964,81.0,-228.0,4.3,10.488247390929208,76.0,-13.0,73.0528,64.3770084126313,271.0,-33.0,10.621666666666666,22.831743922783375,162,-10,-85.2898,65.16883776744834,148.0,-210.0,1.16,29.567004131858425,88.0,-232.0,-1.3282,32.9584963971356,104,-272.0,14.811666666666667,36.3734728965431,102.0,-187.0,8.6022,39.33193556335615,115.0,-223.0,21.185,28.8641203168686,121.0,-53.0,12.3046,32.02880295671382,125.0,-83,21.683333333333334,43.96248084699295,308.0,-7.0,-74.5254,56.08417026969374,288.0,-154.0,20.255,40.94581755197959,310.0,-17,39.3654,61.80084370653851,397.0,-76.0,15.753333333333334,38.26411489749748,294.0,-21.0,-15.3772,52.19882489252033,308.0,-110.0
1001359,4.276666666666666,8.421012739306097,41.0,-49.0,-294.9994,18.32245069961985,-183.25,-375.0,16.206666666666667,21.857430976418268,158.0,-5,-41.6232,24.67084963595701,113.0,-98.0,11.16,20.22608217129556,146,-3.0,253.3762,22.610331124510317,411,210.0,-11.43,13.18225195733516,9.0,-97.0,168.5634,18.56005335229401,226.0,67.0,-3.525,10.96597958840583,8.0,-86.0,-273.9362,16.47693325713253,-180.5,-377.0,13.953333333333333,20.647545993544984,148,-2,106.1228,21.82130427265978,251.0,70.0,-5.901666666666666,12.385555991646973,26.0,-99.0,100.8316,14.943428035092886,146,-7.0,-0.08,9.700872812965509,40.0,-69.0,-8.0796,13.818260642893437,42.0,-85.0,2.725,27.435853215576632,96.0,-172.0,26.4294,29.045168542117292,127.0,-169,1.6416666666666666,29.116031046296282,135.0,-164.0,-106.479,31.341952061095366,39.0,-296.0,2.265,24.634760840460107,167.0,-115,-106.2522,28.54445296655727,71.0,-249.0,1.1766666666666667,16.838412105131003,131.0,-69.0,45.0128,18.438173341196247,192.0,-33.0
1001423,10.675,12.930559732664321,62.0,-7.0,37.8294,15.973862890359362,113.0,-2.0,11.816666666666666,17.158760315231273,83.0,-22,-35.243,36.39883447309818,83.0,-111.0,0.61,7.145481089471863,25,-15.0,-73.0724,39.73234398119497,21,-151.0,-12.435,14.798280587059205,13.0,-72.0,-1.0382,19.886566841966463,42.0,-83.0,4.761666666666667,5.893063483640935,30.0,-11.0,55.7026,24.202969926023545,121.0,-6.0,6.491666666666666,11.50347471660435,54,-18,-53.9094,37.25792790319934,52.0,-125.0,-9.655,11.828185617414025,7.0,-68.0,-30.7122,28.87478088505608,33,-118.0,-4.211666666666667,8.818174256739443,8.75,-67.0,-85.3512,22.60412038899103,-38.0,-173.0,-0.6516666666666666,12.200013547351313,27.0,-61.0,23.2634,19.357888139257575,70.0,-51,18.558333333333334,44.18446103804167,154.0,-128.0,-49.7518,53.36652693177625,148.0,-227.0,32.07333333333333,62.37713247301093,242.0,-43,-7.8696,73.93669586774891,275.0,-169.0,26.782083333333333,61.595300064470386,467.0,-13.0,-105.6378,94.78185591746977,458.0,-233.0
1001537,6.04,14.712298710036213,119.0,-42.0,12.688,15.25568274447263,134.0,-42.0,6.465,14.73574254434887,86.0,-12,56.2756,38.12957440937415,181.0,-27.0,-0.285,14.996014192666886,106,-55.0,43.5876,36.18795830438628,201,-71.0,-7.47,12.661586261865718,4.0,-92.0,-34.237,22.714876865173625,17.0,-142.0,2.933333333333333,12.844151284620649,86.0,-75.0,-15.1984,20.1910038740029,99.0,-121.0,3.245,12.923040470415623,86,-12,50.1754,36.38730320922395,184.0,-26.0,-4.881666666666667,23.260717899975106,18.0,-154.0,-39.1662,24.14655622568154,0,-210.0,-4.968333333333334,40.59992607409799,54.0,-271.0,-105.1104,51.957973515525026,24.0,-425.0,0.4683333333333333,33.29472927089545,66.0,-196.0,-140.5574,46.59776717011235,-5.0,-394,1.78,23.39383679519031,77.0,-129.0,-160.5594,53.676576564084264,-12.0,-368.0,3.145,18.95637030129977,108.0,-88,-135.67,51.190095721731176,36.0,-300.0,3.3116666666666665,16.494378756278017,125.0,-38.0,-88.7076,44.54916948990183,93.0,-194.0
1001541,10.768333333333333,18.68318309484643,156.0,-14.0,91.3754,36.03174260065699,286.0,24.0,9.016666666666667,21.222387288479638,192.0,-48,161.301,48.13142008085778,413.0,34.0,-2.3583333333333334,7.072948269443388,36,-37.0,69.9256,17.12946188997191,130,10.0,-11.013333333333334,19.71978250950609,29.0,-175.0,-126.087,41.64677935927339,-29.0,-348.0,6.183333333333334,9.339328431721178,65.0,-16.0,10.9752,14.727124123874288,90.0,-29.0,3.5383333333333336,12.76578228007286,114,-42,115.8672,31.31451363441559,272.0,22.0,0.93,13.246324018383364,32.0,-107.0,46.6994,27.232896277113092,122,-102.0,7.156666666666666,15.740990721326561,63.0,-54.0,26.2942,17.74861251929288,95.0,-48.0,10.83,27.118156894105717,125.0,-99.0,-108.5694,44.77125845495076,52.0,-278,14.646666666666667,44.31615757511274,293.0,-140.0,-71.3458,52.89349130431834,245.0,-267.0,16.541666666666668,58.416706490713956,504.0,-82,-95.717,69.96820785899835,444.0,-256.0,12.91,44.84865549824209,399.0,-51.0,-146.4324,68.30828815187803,301.0,-294.0
1001845,11.738333333333333,25.189942382272775,211.0,-51.0,1.1238,27.63505877612711,224.0,-88.0,11.528333333333334,30.89194928384345,260.0,-18,17.2472,33.3757530575716,279.0,-24.0,-0.6866666666666666,25.55174792890346,208,-80.0,16.1234,29.95364706408887,245,-96.0,-12.818333333333333,25.15601976775252,2.0,-212.0,-8.943,26.732686939400608,19.0,-221.0,5.993333333333333,20.135042973769774,129.0,-130.0,-7.2512,23.49165167798978,144.0,-159.0,5.626666666666667,25.41732917169352,193,-28,16.9322,28.547062951554228,225.0,-34.0,-0.38666666666666666,27.03467814164286,55.0,-186.0,69.939,28.913970308485826,139,-144.0,6.361666666666666,62.50467340305221,186.0,-437.0,83.4846,65.37097339676073,275.0,-388.0,8.295,39.141554751099676,169.0,-273.0,79.9528,41.46189783596501,251.0,-228,10.798333333333334,36.29197795503696,315.0,-111.0,79.1286,38.66673585965073,398.0,-63.0,11.163333333333334,42.50611707612081,397.0,-58,22.1416,45.272043795702444,427.0,-67.0,11.465,45.9339973041029,430.0,-21.0,17.6842,48.14456636381722,445.0,-30.0
1001915,10.365,18.927364009109493,149.0,-7.0,201.3936,74.61687395649861,431.0,17.0,17.891666666666666,25.370913737760585,208.0,-6,193.2666,76.70029937646919,489.0,22.0,6.7716666666666665,8.615075771898676,64,-11.0,-8.127,16.379440497159845,99,-56.0,-15.35,21.972805161532442,4.0,-180.0,-197.0766,75.21927101773854,-22.0,-459.0,1.3583333333333334,7.294970680011142,58.0,-10.0,105.0048,38.04426864798428,206.0,4.0,12.57,16.449065829604628,134,-4,92.823,41.040371233701094,274.0,5.0,3.325,16.048864186186716,40.0,-98.0,-23.0548,40.40242810723138,64,-174.0,7.211666666666667,18.15682233272723,82.0,-80.0,-34.0054,29.039479520817864,65.0,-162.0,11.825,24.771240885349286,187.0,-47.0,-92.5052,29.678955051686035,110.0,-178,13.37,28.9047245273156,251.0,-27.0,-43.2204,40.08085108677209,229.0,-126.0,12.706666666666667,27.682255848989055,246.0,-13,-18.6096,46.082408659270406,261.0,-97.0,12.061666666666667,23.14075475336869,206.0,-3.0,-15.4644,31.538356530421808,209.0,-64.0
1002111,11.286666666666667,25.955625380423584,232.0,-6.0,2.7344,28.395778852498484,240.0,-30.0,9.563333333333333,17.817762361069796,129.0,-22,-4.4458,20.640442397390615,131.0,-51.0,-2.125,11.901654296777401,21,-118.0,-7.1802,14.94280187782733,27,-145.0,-11.65,21.451126621539792,9.0,-181.0,1.1038,23.671464372953356,35.0,-177.0,6.368333333333333,18.112224156322956,174.0,-9.0,5.2034,20.21405522006903,186.0,-22.0,3.7783333333333333,7.830231832810287,44,-30,-5.5688,11.0985074023492,42.0,-54.0,-4.158333333333333,27.98082552789003,40.0,-213.0,5.8126,30.74484479128168,62,-221.0,3.17,36.268642562595765,59.0,-249.0,-22.3034,41.19542873232417,50.0,-299.0,5.965,27.37073452308749,114.0,-172.0,18.4674,30.94353789145643,135.0,-176,12.03,29.103134424548387,225.0,-96.0,21.5894,32.11270788395149,262.0,-96.0,10.845,27.226414410764164,225.0,-40,30.3974,30.29663798575677,277.0,-31.0,11.331666666666667,25.176609459752296,205.0,-18.0,12.7634,28.04597333736164,229.0,-30.0
1002183,12.143333333333333,19.77716163210035,135.0,-42.0,-49.8358,44.8806332214687,163.0,-162.0,14.015,22.74689960558728,172.0,-11,212.0234,74.81217583014144,453.0,39.0,1.2566666666666666,14.55875872303527,131,-33.0,261.8592,96.72696302148641,483,33.0,-14.293333333333333,20.02033854747605,9.0,-155.0,-80.8464,38.29650645998927,-17.0,-269.0,5.23,13.183465654624609,69.0,-82.0,-155.6036,65.46006467335638,35.0,-296.0,7.895,16.36441184399855,122,-12,237.1992,83.50239469236796,434.0,39.0,-10.565,14.791859529259103,19.0,-109.0,54.2144,33.42587070877885,124,-93.0,-1.1566666666666667,16.070743258757165,61.0,-120.0,61.7728,34.3078705279124,151.0,-95.0,28.345,63.63965725080549,318.0,-286.0,45.788,66.46484075058031,382.0,-315,24.49,53.43934162518597,417.0,-135.0,35.4436,58.744341166107226,493.0,-184.0,18.47833333333333,46.905538378272084,416.0,-84,42.6608,50.6200211710742,502.0,-110.0,13.591666666666667,36.03449639658581,322.0,-36.0,-97.3188,61.044422894806694,271.0,-223.0
1002840,10.868333333333334,21.390285892328684,173.0,-16.0,-68.624,35.7227409922587,161.0,-140.0,8.283333333333333,13.721141432921032,122.0,-8,21.3208,22.708251525822064,188.0,-25.0,-2.9516666666666667,10.732473956279708,29,-95.0,89.9448,33.419379900889844,178,-93.0,-10.766666666666667,17.154461680727714,6.0,-142.0,23.8978,24.829437270304776,71.0,-139.0,6.625,15.463970221130149,130.0,-21.0,-79.0334,32.67415927671284,123.0,-147.0,2.8183333333333334,6.096337470609345,43,-23,55.8826,22.30009904103567,145.0,-23.0,-1.9166666666666667,15.342524419258895,16.0,-101.0,-10.343,34.36816769919514,59,-151.0,5.1883333333333335,20.352629573486457,65.0,-101.0,-56.6006,60.87278110650112,106.0,-233.0,8.193333333333333,30.744744085597606,229.0,-26.0,-27.558,61.58966013869536,281.0,-140,10.221666666666666,35.531617805679616,289.0,-17.0,-1.8096,55.737966843436254,381.0,-84.0,8.925,27.41744046527076,229.0,-10,-31.3476,43.076726596156306,256.0,-87.0,7.346666666666667,19.29593624459709,161.0,-6.0,-31.3436,39.24858645913251,188.0,-102.0
1002903,7.295,14.4212103629804,94.0,-7.0,-52.052,31.90582542420741,90.0,-113.0,14.411666666666667,20.283462817992614,157.0,-12,-45.0092,30.562472337165396,128.0,-104.0,6.53,9.855917004520686,90,-12.0,7.0428,16.865176197122874,122,-33.0,-12.008333333333333,16.941416623831145,5.0,-126.0,48.7834,30.077933513458,98.0,-109.0,-0.011666666666666667,7.019130802472784,31.0,-37.0,-29.303,20.429664485742293,40.0,-105.0,10.743333333333334,14.241516383057277,112,-12,-18.7282,18.837407591279646,98.0,-59.0,-4.91,18.438326930608426,32.0,-143.0,85.717,25.89059502985592,143,-82.0,2.466666666666667,29.080042793793975,65.0,-202.0,72.2796,35.98562801786291,160.0,-163.0,13.821666666666667,37.73826348092285,107.0,-224.0,89.7506,41.53546917563349,201.0,-170,22.848333333333333,43.21645516724182,284.0,-136.0,139.255,54.113469441535536,434.0,-74.0,22.563333333333333,44.100030108329356,361.0,-34,107.9892,50.713578885343914,476.0,21.0,17.595,32.98657769962403,257.0,-12.0,89.9548,38.09491773137199,350.0,37.0
1002910,3.591666666666667,8.466498521952403,43.0,-34.0,-62.6422,29.74401753563227,27.0,-166.0,27.891666666666666,25.022906783363297,148.0,-10,-41.7782,36.393430791284295,137.0,-154.0,19.24125,21.467587907251144,109,-11.0,20.864,23.942738022206232,144,-42.0,-16.901666666666667,15.707811131903629,14.0,-96.0,52.4584,31.004655609117805,160.0,-68.0,-10.386666666666667,10.700697666767134,8.0,-46.0,-41.5012,19.948413434656903,15.0,-102.0,22.897916666666667,22.98181793408771,127,-10,-10.1992,26.9739859746386,138.0,-86.0,-3.695,11.796693392641854,40.0,-32.0,40.84,27.693291606452274,133,-43.0,9.293333333333333,26.442149853763574,150.0,-159.0,19.3238,41.07468506951697,213.0,-198.0,16.275,33.767776182824555,229.0,-167.0,67.9056,53.759716225441515,339.0,-172,16.413333333333334,31.16952286377762,227.0,-136.0,88.8826,51.84450614327423,362.0,-120.0,16.8,24.1344152611991,190.0,-81,79.0324,43.20556619510963,302.0,-79.0,17.071666666666665,18.581079908217273,145.0,-41.0,103.7948,41.01936972894635,291.0,-21.0
1002922,14.94,26.648259480373824,203.0,-26.0,-36.0998,36.41077642621755,194.0,-112.0,10.911666666666667,14.714863139772053,108.0,-7,-41.6696,23.480213709419257,91.0,-91.0,-4.401666666666666,14.794266813720629,47,-111.0,-5.5698,18.289885947156698,65,-132.0,-14.091666666666667,20.21550388247155,6.0,-153.0,39.128,29.241375070266447,91.0,-142.0,9.33,20.259428257809578,155.0,-36.0,-15.013,26.31145056814618,154.0,-88.0,3.2983333333333333,6.303649516131288,47,-22,-23.3776,10.562112394781641,33.0,-61.0,-8.478333333333333,16.061222365962337,27.0,-100.0,-43.0174,28.77877511708933,35,-168.0,1.4083333333333334,35.51105363905097,101.0,-250.0,-98.058,54.885042005996496,60.0,-420.0,6.966666666666667,38.98258870601364,130.0,-270.0,-48.2086,49.07187265674706,108.0,-376,8.865,33.26655139425586,138.0,-219.0,-69.7508,48.62670356254884,112.0,-357.0,12.695,23.25701274168002,150.0,-84,-17.4974,31.714589595957253,137.0,-151.0,10.115,19.51115343421125,149.0,-35.0,0.2412,36.143815827330684,176.0,-88.0
1003141,1.2033333333333334,7.37533539306614,34.0,-31.0,10.0774,17.52506231772087,74.0,-57.0,17.153333333333332,13.85062533686556,92.0,-17,-5.1372,64.34137375095438,164.0,-174.0,15.35,13.634178865385818,81,-21.0,-15.2146,49.80291705151416,113,-164.0,-10.22,8.058221474576964,6.0,-60.0,-2.2208,40.04203350680382,98.0,-110.0,-7.068333333333333,7.72336264560687,17.0,-50.0,12.8948,18.9417880085276,81.0,-56.0,16.483333333333334,13.475028344641391,86,-18,-9.9366,56.85787703071581,139.0,-166.0,-3.158333333333333,32.14249415579873,46.0,-207.0,12.98,47.750643974715146,141,-235.0,-3.52,37.552491262231854,104.0,-260.0,-45.9018,61.09721889546201,158.0,-360.0,2.2016666666666667,36.029261217639316,174.0,-232.0,-20.955,56.43340300743878,244.0,-296,4.113333333333333,20.435520274485032,124.0,-117.0,-48.1444,48.82621374466793,169.0,-221.0,5.181666666666667,12.498879838698436,87.0,-55,-44.5202,51.751985391480396,132.0,-168.0,4.846666666666667,9.639205098626073,66.0,-15.0,-63.0328,47.44777048671518,91.0,-144.0
1003254,5.673333333333333,16.39074806780405,153.0,-12.0,10.0426,38.15811820884253,220.0,-62.0,8.515,12.024826055567983,97.0,-38,61.1254,37.75943954615852,222.0,-25.0,2.466666666666667,16.11745085992888,39,-98.0,51.0828,23.459990284737973,114,-80.0,-8.116666666666667,11.984283689714438,14.0,-123.0,-35.3394,36.10292796491719,22.0,-214.0,1.4683333333333333,15.05641603732073,121.0,-24.0,-20.2716,25.4299003820306,137.0,-79.0,5.82,11.563344383582688,37,-42,56.348,24.9826919286133,136.0,-22.0,7.591666666666667,24.35306135216314,80.0,-96.0,4.433,30.818804503095183,96,-138.0,14.231666666666667,29.988964590699396,126.0,-151.0,13.6594,38.40057540766804,150.0,-200.0,12.88,23.06965394914569,187.0,-101.0,50.4902,36.827444982784236,267.0,-105,12.89,18.030378993983092,146.0,-60.0,145.7014,64.30399239580697,328.0,-18.0,10.673333333333334,15.56662955027695,109.0,-38,230.1458,89.21713368159729,410.0,26.0,6.871666666666667,9.639205098626073,75.0,-24.0,139.8646,42.395951066581816,249.0,45.0
1003582,9.125,18.817705536719046,168.0,-26.0,101.838,25.644612611618836,289.0,37.0,17.338333333333335,20.5823677911189,154.0,-3,62.7356,99.33741335790862,356.0,-72.0,7.483333333333333,11.52922614729868,68,-35.0,-39.1024,97.91582259389949,162,-200.0,-14.486666666666666,18.900436208957952,9.0,-158.0,-82.0386,53.53330094473906,-6.0,-307.0,0.83,11.65408798090467,97.0,-38.0,70.7192,51.52822480311155,237.0,-49.0,12.721666666666666,13.776218538562105,93,-6,12.0704,97.79316869720502,239.0,-115.0,-0.74,21.949845861265935,28.0,-148.0,-191.6178,42.17220557618489,-116,-404.0,8.626666666666667,36.189141403956455,81.0,-231.0,-260.7294,52.10124927139464,-137.0,-580.0,12.26,20.588566406301016,86.0,-122.0,-242.7956,46.81160348289727,-99.0,-437,11.63,25.06178565066743,158.0,-121.0,-56.3302,41.1195910480637,161.0,-225.0,16.675,28.06028109267617,220.0,-82,-2.4826,45.85089418146608,300.0,-151.0,11.203333333333333,23.89892582430339,195.0,-38.0,-4.9628,36.296438064361084,255.0,-94.0
1003636,10.478333333333333,17.001260655871636,139.0,-10.0,131.5344,63.71115143081312,360.0,-1.0,9.953333333333333,22.07437025652651,206.0,-11,-30.76,33.51343611150608,192.0,-96.0,-0.855,13.16259757798589,83,-23.0,-162.2944,83.67058341281003,41,-324.0,-11.333333333333334,18.631574156671668,7.0,-170.0,-50.1326,29.000058917871183,13.0,-247.0,5.371666666666667,10.487780058504066,67.0,-30.0,147.1704,72.45495265225145,321.0,5.0,4.7716666666666665,16.01456203654106,142,-14,-96.2754,55.1981481106024,114.0,-205.0,-4.036666666666667,31.10238986887592,58.0,-204.0,-68.0938,64.22207254176713,86,-356.0,9.098333333333333,55.68248076270389,163.0,-360.0,-189.4628,96.31724983698403,82.0,-654.0,7.97,30.91950463165066,122.0,-190.0,-95.977,73.85294625808777,107.0,-417,8.736666666666666,30.13448725666694,209.0,-117.0,-76.7014,72.93510977601939,226.0,-312.0,10.4,33.100151057057126,298.0,-52,-44.5312,66.45303173339799,324.0,-202.0,9.651666666666667,31.206361486437707,289.0,-14.0,-30.81,66.00529902969912,330.0,-149.0
1003660,13.371666666666666,17.588827814521604,139.0,-12.0,-108.3278,55.497376038511945,101.0,-199.0,19.655,19.431400061069542,120.0,-39,-92.4812,68.4445092506331,171.0,-231.0,5.528333333333333,11.062663809207779,24,-73.0,15.8466,73.86863656816742,209,-177.0,-17.635,17.765934866104477,17.0,-130.0,100.6572,50.18471966804238,193.0,-106.0,3.62,10.988126925610814,80.0,-6.0,-61.8356,55.65430596674439,107.0,-144.0,12.828333333333333,13.148720998214573,50,-52,-38.0694,65.57654293754742,170.0,-190.0,-2.783333333333333,13.248637246482708,13.0,-106.0,82.5902,38.44292215688084,126,-123.0,6.151666666666666,21.8977623793442,62.0,-136.0,113.1642,42.66090058074254,196.0,-125.0,13.43,28.55541571517856,110.0,-160.0,191.6514,46.83463972360629,317.0,-68,16.178333333333335,32.417123004500084,189.0,-148.0,88.268,50.21524644965909,281.0,-158.0,14.525,32.2933849005231,220.0,-123,86.822,55.74457028267417,324.0,-148.0,16.56833333333333,30.634653535207846,233.0,-94.0,79.697,52.82372943100478,319.0,-121.0
1003767,10.075,23.138626615827196,166.0,-12.0,186.8244,97.97945072636405,458.0,-4.0,11.51,14.887239502338907,85.0,-8,107.009,72.92617992874712,284.0,-18.0,0.835,12.174061565476,15,-89.0,-79.8154,37.4080649438059,19,-208.0,-11.955,18.510888012194336,8.0,-127.0,-146.666,84.317754026065,8.0,-371.0,4.248333333333333,16.91104167564954,123.0,-10.0,133.568,64.5765388976523,322.0,-7.0,6.285,7.204890121762209,28,-39,13.845,30.964395279094344,91.0,-73.0,-12.918333333333333,18.596549784540382,3.0,-149.0,-25.8138,55.51572326431495,86,-231.0,6.21,22.78638262939805,67.0,-104.0,-111.5728,71.77321993724401,80.0,-323.0,-2.683333333333333,13.49801425724869,30.0,-67.0,-81.8762,62.225043781101505,63.0,-234,8.845,23.342328682745713,135.0,-59.0,-54.5902,66.60332021723842,166.0,-228.0,6.531666666666666,22.318430288789475,146.0,-25,-93.7956,86.84718429885912,189.0,-247.0,6.125,17.057726743815152,112.0,-18.0,-9.6198,64.68787249523669,199.0,-124.0
1003998,-3.4066666666666667,7.37533539306614,52.0,-22.0,167.9112,13.774197419813612,255.0,114.0,0.6483333333333333,2.1628678235671783,13.0,-3,9.2782,10.259221905996554,34.0,-11.0,3.5083333333333333,6.397129347519002,22,-42.0,-158.633,16.060619882183875,-112,-235.0,0.26666666666666666,5.434317631207942,10.0,-33.0,-88.3462,13.11134662830003,-58.0,-139.0,-3.7133333333333334,6.287645735002003,47.0,-22.0,163.5128,14.387558380767738,245.0,113.0,2.1866666666666665,4.361713004116041,11,-16,-74.4268,10.722305804256843,-42.0,-107.0,0.47333333333333333,20.569782584061397,47.0,-143.0,38.6002,26.663247363365176,113,-123.0,4.276666666666666,22.583329889298632,87.0,-158.0,-18.1178,26.078656467694035,77.0,-196.0,5.005,12.954470592553497,81.0,-73.0,6.7254,19.357888139257575,102.0,-86,6.273333333333333,12.846735858661615,92.0,-29.0,46.6824,18.28884401427075,153.0,-4.0,8.176666666666666,16.79708671830393,143.0,-4,22.531,20.00044597002777,189.0,-2.0,8.16,15.93239048814291,134.0,-5.0,65.5728,19.384465433949938,222.0,37.0
1004161,5.831666666666667,15.408439155937316,122.0,-46.0,-22.5676,24.907674123450388,120.0,-112.0,8.515,15.007212987982367,59.0,-34,55.5592,33.63258086082601,202.0,-20.0,2.0883333333333334,12.180607424189578,31,-86.0,78.1268,23.862345269482628,146,-55.0,-8.34,13.96738104776029,36.0,-82.0,-16.2468,27.086304468494774,54.0,-135.0,1.555,11.643752616746887,104.0,-35.0,-50.1012,17.668869758985718,86.0,-119.0,5.548333333333333,11.284546832825065,45,-31,67.0926,26.36616060862863,168.0,-13.0,-3.195,9.383690194516582,15.0,-73.0,-16.0712,19.538416787447236,34,-112.0,10.12,35.98368519204224,178.0,-175.0,-21.6128,51.264526489181584,188.0,-271.0,7.6883333333333335,35.02324747776666,118.0,-201.0,-80.8576,52.8905220454478,92.0,-344,15.101666666666667,41.43015806417135,284.0,-131.0,-27.7448,55.526851819277496,283.0,-231.0,15.633333333333333,42.39059119925343,326.0,-109,-4.3288,54.094860112213986,347.0,-170.0,13.076666666666666,36.17057905105874,284.0,-81.0,-17.0878,45.49398741767971,305.0,-153.0
1004221,18.313333333333333,30.82745241213134,211.0,-7.0,-265.2632,37.05650719860144,-29.0,-325.0,19.81,32.07112772157121,237.0,-16,-31.2572,34.5344617470723,206.0,-91.0,0.9183333333333333,6.8223894071082025,46,-22.0,234.006,22.33559410447817,337,175.0,-20.275,31.250643326711426,5.0,-223.0,148.51,34.034686718111566,192.0,-81.0,8.335,15.559330801805071,103.0,-10.0,-249.3782,25.25259520841373,-118.0,-296.0,10.475,17.37649873632008,136,-19,101.6258,22.413526593555062,270.0,43.0,-7.5633333333333335,37.24454307531358,78.0,-290.0,-4.198,39.14216136086509,91,-302.0,4.533333333333333,47.75673309131975,122.0,-293.0,221.9192,50.50121455331545,357.0,-96.0,6.748333333333333,50.834224008590475,181.0,-321.0,-59.0128,53.57167755596235,130.0,-413,12.721666666666666,43.49671478654707,200.0,-247.0,-309.9944,67.56268769550248,-33.0,-645.0,17.726666666666667,41.039882499290314,222.0,-158,-93.2616,48.59025792728414,161.0,-311.0,18.316666666666666,39.44806360548287,276.0,-52.0,-70.8998,46.91752934629018,220.0,-180.0
1004519,9.021666666666667,17.097110785808876,114.0,-8.0,2.5366,20.728932930568327,132.0,-25.0,18.731666666666666,31.70377996215733,226.0,-25,67.8964,34.863798803916936,291.0,3.0,9.07,15.26461376299228,114,-24.0,65.3598,17.85732185855427,187,17.0,-15.016666666666667,24.395895601970057,12.0,-171.0,-34.9648,27.25440076317951,8.0,-211.0,-0.28833333333333333,3.926469062233495,11.0,-13.0,-31.164,8.810669978645613,1.0,-54.0,14.11,23.408073393596492,170,-24,66.8688,25.695322270016383,234.0,13.0,-17.528333333333332,22.595040692348597,27.0,-155.0,-138.918,58.230514989994724,15,-362.0,-7.491666666666666,16.622572922251102,61.0,-109.0,-96.1524,45.09120950074416,54.0,-262.0,-2.5616666666666665,35.12657394654683,69.0,-239.0,-122.1596,59.68704824197625,47.0,-433,11.741666666666667,27.673662519121358,182.0,-61.0,35.2866,33.447033656813275,239.0,-63.0,12.578333333333333,33.871874230530686,240.0,-46,-4.8362,43.2976878084731,259.0,-115.0,12.886666666666667,33.513984477461875,245.0,-39.0,31.3186,39.75889704254885,281.0,-54.0
1004563,10.143333333333333,22.68052297065088,187.0,-8.0,195.5474,106.37521775883705,500.0,20.0,22.473333333333333,28.579700643794173,239.0,-15,-311.3194,58.997381159166714,13.0,-422.0,11.67,14.263394874059026,90,-13.0,-506.8668,122.42710426110715,-181,-691.0,-17.513333333333332,24.82471528313847,7.0,-212.0,58.1364,60.4284088408755,179.0,-223.0,-0.9,12.264175471673585,89.0,-37.0,351.4534,110.82276223068978,566.0,120.0,17.276666666666667,19.58307404083661,151,-14,-408.8464,80.03500238670578,-109.0,-542.0,-7.578333333333333,29.081045325473124,27.0,-236.0,113.761,49.05343493579221,191,-167.0,2.4766666666666666,35.42775920407925,55.0,-238.0,99.8954,51.51496926952398,188.0,-193.0,5.681666666666667,23.553704532880218,57.0,-129.0,117.38,43.34808415605008,212.0,-76,9.661666666666667,13.868087968025328,56.0,-29.0,131.4036,36.97427087908564,222.0,26.0,11.431666666666667,19.086172932838636,151.0,-6,137.0304,40.855260075539846,328.0,50.0,12.25,24.436192420260568,218.0,-13.0,88.918,38.06020593743549,330.0,6.0
1004664,6.366666666666666,17.561764021747802,147.0,-16.0,-141.156,65.88001870066523,101.0,-264.0,8.163333333333334,14.438605272747857,89.0,-46,-92.948,67.15248093704356,79.0,-254.0,1.125,12.17700188880662,21,-86.0,48.208,18.114688404717317,93,-65.0,-8.378333333333334,14.942395966585218,15.0,-118.0,117.303,65.89850370835441,240.0,-87.0,2.3633333333333333,13.271070876994902,104.0,-10.0,-94.4356,34.74128167814193,65.0,-161.0,4.858333333333333,10.054597483517455,25,-63,-22.1222,36.520822377925725,46.0,-151.0,-2.9516666666666667,27.122979136190448,36.0,-209.0,-38.0238,56.59895788404589,80,-318.0,6.865,35.95858879785653,97.0,-261.0,-57.2972,54.319606701079856,86.0,-374.0,11.378333333333334,33.23555120483018,153.0,-222.0,-17.3732,60.01866644436546,202.0,-320,13.395,30.24195168415337,195.0,-150.0,-41.8654,48.43571495126298,192.0,-258.0,13.183333333333334,22.770369391431096,178.0,-60,10.6108,40.85871416674784,230.0,-118.0,11.616666666666667,20.316078744569666,156.0,-35.0,-124.6204,55.62059244416585,115.0,-251.0
1004731,1.75,22.135510686074838,150.0,-21.0,-11.3868,23.407835990539578,159.0,-47.0,3.315,39.33148579700492,313.0,-46,28.9536,44.04252316841078,368.0,-51.0,1.14,34.65150886565644,233,-147.0,40.3404,39.639345703984574,299,-128.0,-3.6333333333333333,26.8129736425402,24.0,-198.0,-8.533,29.171515404586028,39.0,-220.0,0.16166666666666665,21.415621958955313,144.0,-77.0,-25.6098,23.97566983339569,128.0,-116.0,2.4433333333333334,35.394586999835,271,-82,34.8968,40.23364947105843,334.0,-77.0,-5.533333333333333,70.77584697465623,106.0,-402.5,4.2906,134.15227076587263,131,-748.5,1.0766666666666667,89.5490225542618,164.0,-487.25,37.6172,149.20708650784655,229.0,-838.25,-3.375,86.73270261117409,89.0,-460.5,-10.9018,94.04279322074606,97.0,-571,-4.267916666666666,24.82537406006649,45.0,-130.0,-78.8416,42.27559709146637,14.0,-299.0,-1.0616666666666668,40.90453761164184,283.0,-54,-66.9002,45.623965631672135,262.0,-139.0,0.44666666666666666,50.33981680097332,325.0,-56.0,-94.3872,54.7111915074055,260.0,-177.0
1004983,11.793333333333333,28.00215388541071,221.0,-22.0,73.5384,44.59622546180338,340.0,-14.0,16.188333333333333,27.623290847077257,209.0,-10,30.7136,37.72285746122635,270.0,-26.0,3.7333333333333334,7.018467702347065,32,-31.0,-42.8248,18.372210127254696,25,-109.0,-15.123333333333333,27.627005910079284,15.0,-216.0,-51.8756,40.267690828255844,14.0,-305.0,3.635,15.04033826082379,117.0,-17.0,58.4308,28.41854344191482,205.0,-7.0,10.165,14.499118651375563,99,-5,-5.8058,19.575180365963426,104.0,-40.0,8.141666666666667,44.97608546648862,134.0,-205.0,-180.1764,70.08966602174675,20,-465.0,25.563333333333333,65.84276210960641,302.5,-47.0,-144.2656,109.65155656277753,402.0,-350.0,28.735,67.04897296006853,400.75,-88.0,-131.9016,98.76532345636296,345.0,-352,25.191666666666666,55.82677013663686,420.0,-19.0,35.3758,65.44867435143358,437.0,-30.0,24.22,47.71874125190926,366.0,-14,102.379,59.44648819736957,470.0,19.0,20.79,37.86866646714669,292.0,-13.0,110.7832,54.2003080965413,416.0,14.0
1005095,12.67,32.77185428585531,248.0,-37.0,-4.475,43.883105803942364,262.0,-97.0,9.293333333333333,12.756983272789151,99.0,-10,37.4516,25.554640624356274,159.0,-25.0,-3.9616666666666664,22.130451054799785,33,-162.0,41.9266,49.235316719200654,140,-192.0,-12.08,22.315247403214393,20.0,-174.0,-16.2374,26.142950125033707,35.0,-188.0,8.096666666666666,27.19081932483013,203.0,-35.0,-22.9542,44.85161426704729,225.0,-113.0,2.9116666666666666,7.482682042927894,19,-44,39.9442,32.51981375038916,111.0,-67.0,-5.998333333333333,22.66807587531171,40.0,-159.0,-43.1754,28.02594217577707,20,-222.0,3.76,28.61472348285057,68.0,-174.0,-11.4024,39.290381446863044,88.0,-222.0,11.546666666666667,28.123439018409933,154.0,-122.0,-24.3454,33.78291430353515,134.0,-181,11.081666666666667,24.769504043390846,201.0,-49.0,12.4072,33.404026526154,239.0,-77.0,10.74,26.56713006705843,225.0,-27,13.7394,35.153319724316226,255.0,-52.0,9.661666666666667,24.34147072841373,199.0,-23.0,-2.8666,31.805370685467572,212.0,-60.0
1005199,4.386666666666667,14.337497069649997,101.0,-10.0,0.5442,20.628350548698748,116.0,-32.0,2.4033333333333333,15.186857988259307,113.0,-41,63.6168,41.57933089601131,221.0,-60.0,-2.5233333333333334,11.304842128732075,21,-84.0,63.0726,33.46735318545523,121,-90.0,-4.601666666666667,13.584660364625325,12.0,-105.0,-31.8294,28.230329357625287,32.0,-165.0,3.118333333333333,10.479710423268171,88.0,-4.0,-31.02,18.45366088341281,80.0,-63.0,0.16333333333333333,11.27770613004061,67,-57,63.5896,36.299211724774416,169.0,-74.0,-1.4,35.75355460183877,46.0,-223.0,-47.1354,49.008606048733924,50,-303.0,4.6033333333333335,34.45875779666018,76.0,-175.0,-84.9378,50.90850156074131,43.0,-322.0,1.78,81.21156485788626,133.0,-442.0,46.2412,95.69768974515529,217.0,-433,-2.2016666666666667,39.73714883106515,64.0,-273.0,3.7634,56.50924013327378,132.0,-317.0,-0.83,33.65829912517862,249.0,-147,23.4112,56.738760248704764,356.0,-195.0,0.28,27.46054624365655,221.0,-45.0,-6.8476,48.08725376063806,284.0,-111.0
1005307,12.84,22.788543905509478,185.0,-4.0,-8.2742,25.07568970856036,175.0,-42.0,10.146666666666667,19.811658744845726,133.0,-4,4.2134,25.585962175380466,144.0,-39.0,-3.131666666666667,9.003758320217667,12,-87.0,12.4876,17.62725861386279,56,-96.0,-12.598333333333333,20.921846569767425,1.0,-152.0,2.2802,23.754908712937628,41.0,-151.0,7.676666666666667,14.23524226074928,134.0,-4.0,-10.1406,17.499715187396625,134.0,-36.0,3.7116666666666664,10.33562756789457,55,-14,8.5956,18.046441772271894,91.0,-27.0,-3.365,43.48672335705845,38.0,-344.0,66.2194,48.41614672441416,117,-291.0,-9.596666666666666,24.023960030676783,8.75,-199.0,73.183,31.247340862863833,116.0,-143.0,8.986666666666666,17.763722082441568,61.0,-85.0,84.5514,27.61859804624413,161.0,-48,12.923333333333334,20.936191683833577,114.0,-51.0,130.1246,46.26621958664875,302.0,1.0,11.841666666666667,21.92555428160382,141.0,-23,82.3368,31.02128568837855,264.0,12.0,15.026666666666667,22.973374927414465,146.0,-8.0,206.23,58.8671750638673,418.0,70.0
1005328,10.321666666666667,28.44576472087815,212.0,-15.0,-0.1406,31.74233185574116,218.0,-44.0,20.988333333333333,37.874109853859565,299.0,-11,-19.6096,43.55857192149439,295.0,-70.0,10.061666666666667,11.853601304619996,116,-10.0,-19.469,18.637173578630424,134,-56.0,-16.805,33.03281663739863,12.0,-250.0,10.1254,36.95759292540574,54.0,-234.0,0.03833333333333333,10.630468658007928,74.0,-15.0,9.9154,14.251380383668103,98.0,-31.0,15.776666666666667,24.212051865869515,206,-5,-19.2944,29.499236068752694,213.0,-58.0,5.98,57.52952517331138,86.0,-402.5,-93.1936,63.42380404106962,11,-570.0,0.3616666666666667,46.851690085725714,82.0,-360.0,-34.5474,53.2119925697206,78.0,-421.0,26.915,49.95989499922246,212.0,-85.0,-234.0704,54.87415642941584,-13.0,-413,28.18,63.397299627034585,464.0,-5.0,-101.5904,69.18052491734939,355.0,-155.0,21.095,51.63744740980135,396.0,-10,-72.8258,56.08230963824511,306.0,-119.0,14.676666666666666,38.71195494360309,303.0,-16.0,-75.3356,45.60467709171944,232.0,-142.0
1005409,7.876666666666667,16.697348758277634,111.0,-17.0,149.749,87.76393108219344,393.0,-16.0,10.223333333333333,17.02057937387039,127.0,-49,-117.592,103.74324621872982,142.0,-325.0,2.0216666666666665,14.229120278108864,45,-88.0,-267.341,68.10309184611224,-106,-444.0,-10.181666666666667,15.397575476533815,7.0,-121.0,-15.8258,89.85433909589452,146.0,-256.0,2.6966666666666668,12.94982582465451,66.0,-21.0,208.796,58.98647967119245,357.0,68.0,6.328333333333333,13.293752814344371,72,-68,-192.2236,75.99862369174852,-31.0,-373.0,8.52,33.62448909153367,48.0,-241.0,64.6492,86.17549152375052,216,-288.0,7.821666666666666,32.92906310878313,92.0,-204.0,96.367,89.33864735376287,298.0,-238.0,10.43,21.90194283619606,107.0,-131.0,108.3276,74.03050910428753,328.0,-111,10.971666666666666,28.20533396166209,181.0,-113.0,119.489,86.02283347460718,472.0,-101.0,10.131666666666666,30.254217290964394,233.0,-75,196.8018,170.45824273633704,654.0,-95.0,11.845,24.462780742725606,178.0,-48.0,146.2214,139.4250866309216,551.0,-52.0
1005503,8.958333333333334,13.11487440105911,54.0,-35.0,65.6708,24.71992773775846,140.0,-13.0,18.765,21.59065635099282,146.0,-30,59.5578,34.424657720302754,246.0,-27.0,9.16,15.077612543105092,132,-37.0,-6.113,21.352878752055894,150,-73.0,-15.003333333333334,16.28178907723459,21.0,-84.0,-62.3588,27.999001099324953,8.0,-174.0,-0.24,9.009202702422304,25.0,-65.0,36.1458,15.404172887889827,76.0,-55.0,14.188333333333333,17.466144314708448,139,-33,26.9712,25.847900699283105,198.0,-50.0,-4.793333333333333,11.523770602059416,30.0,-91.0,22.042,14.932978135656665,71,-82.0,0.59,17.537537835549593,49.0,-120.0,35.7678,22.283372347111197,93.0,-95.0,7.1866666666666665,23.14112836968462,63.0,-106.0,-71.167,39.84242852788971,31.0,-228,12.556666666666667,23.827787466643976,107.0,-102.0,2.935,40.472528645984056,150.0,-176.0,16.096666666666668,29.46202056131853,187.0,-93,46.5068,35.99778817872009,267.0,-100.0,14.738333333333333,22.997243252664486,171.0,-31.0,25.0134,34.82948205816446,234.0,-69.0
1005510,9.043333333333333,22.346247758603432,198.0,-26.0,14.1896,23.13233347157178,219.0,-35.0,6.371666666666667,19.50615793082334,135.0,-36,-157.6218,63.09717873851413,47.0,-303.0,-3.3633333333333333,10.186821006684186,29,-65.0,-171.8114,59.54049571543724,-40,-312.0,-8.92,20.315107678769515,21.0,-167.0,71.97,37.0435513956208,162.0,-121.0,5.946666666666666,14.30118254628694,131.0,-28.0,93.2522,32.323332055343556,255.0,11.0,1.7616666666666667,10.854255565854752,43,-32,-164.4682,60.241990245674984,-20.0,-292.0,2.5933333333333333,34.91415122204112,104.0,-219.0,-36.4,47.88687920505992,112,-305.0,16.41,46.65903163732969,232.0,-230.0,-4.8098,60.24276241972973,268.0,-310.0,19.891666666666666,54.17579346186101,361.0,-180.0,-49.6278,61.91461594131066,337.0,-297,15.968333333333334,45.586664686311735,336.0,-111.0,-38.74,51.48331768641178,327.0,-207.0,14.401666666666667,41.32812194969533,324.0,-70,-57.69,50.129116289836986,297.0,-181.0,10.418333333333333,30.6952764643393,246.0,-29.0,-18.4336,32.63810642546531,241.0,-73.0
1005587,16.453333333333333,24.85252144596645,164.0,-23.0,256.681,94.02924034043878,522.0,27.0,22.063333333333333,36.61765497073175,291.0,-35,182.447,92.42626028894601,573.0,-31.0,4.901666666666666,16.70903938657822,149,-72.0,-74.234,21.493367442073843,105,-170.0,-20.471666666666668,30.175639135273045,17.0,-220.0,-219.3146,92.609984487851,-6.0,-537.0,5.305,10.530209320489947,64.0,-17.0,165.7094,50.16175586679557,281.0,33.0,13.638333333333334,25.63599417269052,220,-50,54.3558,47.87966589649515,324.0,-72.0,-17.739583333333332,35.73126358278171,47.0,-258.0,-339.57635000000005,151.56408788575214,-23,-748.5,8.598333333333333,36.67083760368115,176.0,-113.0,-329.7976,151.01681043592467,113.0,-644.0,-7.845,31.946689578108092,52.0,-241.0,-354.46254999999996,153.5501517184532,-33.0,-818,13.435,56.95807617596179,457.0,-48.0,-322.0792,163.51943654306055,427.0,-580.0,11.771666666666667,49.12425942331232,376.0,-40,-312.0664,157.14439598993022,333.0,-558.0,15.09,38.37988057997749,309.0,-31.0,-56.6192,58.22937223910284,303.0,-163.0
1005639,11.17,21.555380612119407,130.0,-14.0,-42.6328,39.64301658754036,129.0,-114.0,14.263333333333334,23.146288159347613,163.0,-14,-34.5158,31.65623082996458,155.0,-98.0,2.533333333333333,5.7028258102647875,37,-11.0,8.117,15.869534051130803,59,-45.0,-13.886666666666667,22.226196755680498,11.0,-146.0,38.8182,34.9862422783585,106.0,-138.0,4.043333333333333,10.701469784826546,55.0,-21.0,-25.1342,25.71168976088503,70.0,-84.0,8.578333333333333,13.01052896268591,100,-8,-12.9508,15.303554468161964,95.0,-48.0,-7.351666666666667,22.10221702052132,21.0,-185.0,130.9964,37.95795024813643,209,-86.0,-1.3283333333333334,26.425061284486908,39.0,-190.0,82.468,26.853278682499834,142.0,-118.0,23.053333333333335,57.31323717567832,190.0,-228.0,105.0912,55.6386383959924,293.0,-166,29.393333333333334,60.03261854099726,258.0,-149.0,-29.4816,57.1669315377343,212.0,-218.0,25.101666666666667,48.4652590063806,311.0,-50,105.6476,52.463356871629934,426.0,-7.0,12.566666666666666,26.21333418107832,184.0,-16.0,-72.6552,37.46509192515081,134.0,-143.0
1005805,14.956666666666667,20.490602453048783,148.0,-19.0,145.391,77.24952115709196,374.0,-34.0,23.726666666666667,25.764871865045677,168.0,-8,217.7582,121.7775666235781,519.0,-48.0,8.07,13.966928796267274,121,-16.0,72.3672,50.08113381464121,241,-38.0,-20.5,22.279437455495444,6.0,-157.0,-181.324,98.84755446646113,36.0,-444.0,3.05,11.855273088377173,75.0,-65.0,36.769,23.029955253973032,141.0,-64.0,16.195,18.10028475834934,123,-10,145.3096,84.72121663337938,357.0,-38.0,1.4766666666666666,23.877453567934936,101.0,-149.0,100.2338,36.138067706505836,233,-76.0,14.676666666666666,51.0325920912857,302.5,-196.0,131.5832,67.15312559933454,552.0,-118.0,16.793333333333333,45.15809955650875,397.0,-109.0,38.9512,60.26905025433867,451.0,-137,18.13,42.03486370462817,380.0,-63.0,92.201,56.247863950553715,500.0,-39.0,19.551666666666666,38.50412095549716,340.0,-32,42.2008,59.628262421103635,436.0,-69.0,19.876666666666665,28.351392480009785,232.0,-11.0,107.9716,53.8699693098112,387.0,-1.0
1005820,17.455,34.10104556070581,295.0,-6.0,3.945,63.08037709938012,335.0,-116.0,6.74,11.203826727209472,36.0,-54,-121.4618,63.11699724131369,20.0,-276.0,-11.303333333333333,36.06398927215654,30,-269.0,-125.4068,114.1634517424907,108,-519.0,-13.16,17.93639874668268,4.0,-163.0,59.0076,26.893083539081196,131.0,-126.0,14.073333333333334,34.67767709765014,264.25,-16.0,64.9248,86.66753916524918,420.0,-109.0,-1.9716666666666667,20.526751583130626,30,-138,-123.187,86.68461011621383,64.0,-370.0,-3.88,34.9657775546319,40.0,-222.0,-141.0812,117.12437750767344,103,-513.0,14.535,55.8539951570163,170.0,-396.0,-152.9936,145.63900425037244,255.0,-740.0,16.296666666666667,36.03445557919377,194.0,-262.0,-27.8268,82.77142019900347,277.0,-405,8.4,32.99919190929782,240.0,-149.0,-177.3636,141.0965293515046,291.0,-542.0,9.626666666666667,24.74450691006435,215.0,-75,-7.2778,67.20346291047807,314.0,-191.0,4.398333333333333,22.828702632626516,157.0,-34.0,-211.6434,139.33986449125032,171.0,-470.0
1005859,8.353333333333333,11.478900450633569,85.0,-19.0,101.9048,48.006213524501185,249.0,3.0,21.02166666666667,25.304898021704986,186.0,-52,-134.4658,46.17447379624374,97.0,-262.0,12.103333333333333,17.730651112942493,122,-39.0,-236.3706,83.78201988278869,15,-398.0,-15.88,17.601106025853415,32.0,-136.0,16.5306,21.5304961308373,98.0,-124.0,-2.04,7.670836547165721,12.0,-43.0,169.3828,64.2615862250536,269.0,22.0,16.723333333333333,21.106084167578054,152,-45,-185.1654,63.246397864542445,51.0,-330.0,0.7283333333333334,16.64064894234063,50.0,-104.0,43.2256,18.68082184059363,104,-74.0,8.145,26.521701334316145,122.0,-169.0,29.4084,33.02254395772682,172.0,-170.0,11.888333333333334,32.429860682539,219.0,-167.0,41.2856,37.788713032332815,273.0,-162,13.468333333333334,35.73904023924288,277.0,-129.0,49.7138,46.62085680851437,363.0,-133.0,11.498333333333333,32.26468653531632,252.0,-82,-25.5038,39.60862009159118,265.0,-142.0,12.646666666666667,27.286904470011905,211.0,-55.0,1.9348,30.993214563191085,221.0,-74.0
1006041,9.976666666666667,19.62879149503493,157.0,-8.0,14.1464,29.466797705892645,199.0,-44.0,7.956666666666667,14.550995002251756,112.0,-15,-55.2882,36.703236107460604,110.0,-135.0,-2.4816666666666665,8.272826837840189,16,-70.0,-69.4346,46.85906660231294,29,-230.0,-10.105,16.81727212322696,8.0,-134.0,20.8268,23.64073606637492,68.0,-126.0,5.9783333333333335,13.201055408144036,107.0,-7.0,42.0436,34.573233852794274,205.0,-26.0,2.9133333333333336,6.539558258951611,37,-13,-62.1182,39.425426170936944,42.0,-148.0,-10.236666666666666,17.245308218630235,23.0,-131.0,-25.3548,21.818141922721104,21,-154.0,-2.255,23.431033018911762,42.0,-180.0,-24.6472,29.292550796405564,32.0,-210.0,5.945,21.27358240478865,50.0,-148.0,3.392,26.847359944694748,66.0,-164,12.38,23.60061298638943,162.0,-82.0,-22.7678,29.210961695226672,142.0,-132.0,12.816666666666666,23.577313719383348,197.0,-32,-32.5348,29.360769556672047,167.0,-90.0,10.926666666666666,24.62717920419542,213.0,-14.0,-27.495,30.523629780876323,190.0,-66.0
1006128,20.683333333333334,23.615455155940193,150.0,-10.0,116.3244,53.58025722819927,315.0,5.0,16.736666666666668,17.45920928590092,73.0,-45,78.0714,33.89843509721356,169.0,-23.0,-4.373333333333333,15.650152998897132,28,-105.0,-38.253,27.541477647359446,31,-181.0,-19.953333333333333,19.273846413094496,18.0,-108.0,-96.9398,42.66638226941675,-1.0,-234.0,12.283333333333333,18.03754571873778,122.0,-19.0,77.5412,39.08226583196016,240.0,-13.0,6.206666666666667,11.667359979399318,31,-48,20.1586,15.369263028525474,63.0,-55.0,-4.431666666666667,11.763021035809164,21.0,-82.0,-84.2932,18.583068469980947,-39,-183.0,-0.30833333333333335,17.10418848963285,30.0,-111.0,-84.3708,21.374913037483918,-33.0,-210.0,5.173333333333333,15.8995793095988,49.0,-80.0,-60.0836,19.637673259324792,-3.0,-156,7.9383333333333335,14.168551933380096,50.0,-60.0,-51.801,21.073941230818694,21.0,-145.0,9.778333333333334,13.802506918028415,55.0,-46,-9.2402,19.514264115256818,53.0,-89.0,9.876666666666667,12.58483699625157,51.0,-35.0,64.3574,23.905716162457882,138.0,-21.0
1006134,7.08,18.78927708384049,138.0,-12.0,20.1872,25.144235048217315,167.0,-31.0,17.161666666666665,18.619672317799317,94.0,-34,40.2192,25.845168820497186,135.0,-37.0,9.485,10.431991260860348,30,-50.0,20.032,25.859090780613304,78,-82.0,-13.203333333333333,18.028273781911444,19.0,-118.0,-29.956,21.97830894313755,14.0,-144.0,-1.2866666666666666,11.996992215643978,93.0,-17.0,0.326,21.99125562581637,119.0,-51.0,13.553333333333333,11.773861822792988,48,-40,30.3722,22.59395642998366,86.0,-52.0,-6.263333333333334,16.9298746467762,26.0,-124.0,21.5614,20.966149623619497,69,-107.0,-2.16,18.188578833982604,40.0,-117.0,17.5668,24.18420843773887,82.0,-119.0,9.013333333333334,22.400442455947655,76.0,-120.0,29.4906,26.850763706829643,103.0,-112,12.366666666666667,20.638367721848116,107.0,-69.0,49.992,25.50762897644546,154.0,-51.0,12.116666666666667,22.132398323624024,144.0,-41,68.1788,26.10919436826805,208.0,2.0,11.751666666666667,20.658815645842065,142.0,-20.0,59.685,26.48745693719954,203.0,5.0
1006152,11.525,16.946957691574024,108.0,-4.0,-50.5506,31.159028220405077,91.0,-114.0,21.03,33.75844240087705,291.0,-11,-0.6436,43.815606569349235,316.0,-83.0,8.67,18.883355104429935,202,-7.0,49.907,18.307232204787265,256,26.0,-17.491666666666667,25.02691745345843,6.0,-194.0,25.848,36.9028087819884,97.0,-194.0,1.0266666666666666,5.87360952812569,21.0,-56.0,-49.9792,13.15419200711317,-12.0,-126.0,15.096666666666666,25.989048762037363,246,-9,24.875,29.754014435030445,280.0,-27.0,-9.651666666666667,30.02876949230891,16.0,-261.0,19.5166,29.75805982318068,62,-259.0,-5.321666666666666,23.926446954967822,62.0,-217.0,120.2464,30.773288531452078,215.0,-139.0,10.84,21.21872757730774,61.0,-91.0,50.1072,22.575706149753103,117.0,-66,18.265,34.90178756167082,279.0,-7.0,20.1882,37.090634677233545,321.0,-43.0,20.915,41.59957261399048,338.0,-9,35.5794,40.72983299302859,389.0,-16.0,16.891666666666666,38.167000544391165,312.0,-12.0,10.9612,56.88428337036514,354.0,-94.0
1006176,10.858333333333333,19.030281059990212,147.0,-19.0,19.3418,26.587376191719255,206.0,-39.0,12.985,14.900831352646065,97.0,-38,-12.104,21.161502404130005,101.0,-82.0,1.4666666666666666,14.531765970528916,29,-86.0,-31.4458,21.344775996950638,15,-145.0,-13.153333333333334,15.481057959828055,6.0,-123.0,-3.3648,21.525643334404663,46.0,-153.0,4.453333333333333,15.135867629207416,101.0,-24.0,25.6454,21.66183876867336,156.0,-19.0,7.413333333333333,11.273973961691098,36,-53,-21.5256,16.588518458259013,30.0,-104.0,3.2483333333333335,26.258712786848907,54.0,-179.0,21.7866,32.2078540179255,89,-178.0,8.896666666666667,29.44513523298694,84.0,-181.0,-28.988,37.22218499765966,69.0,-245.0,8.505,23.391735898246914,143.0,-105.0,-0.3184,28.663806820448674,153.0,-125,8.888333333333334,22.326871639847404,156.0,-75.0,30.6028,29.637925571132673,206.0,-80.0,8.04,19.130300572651755,141.0,-45,28.981,24.799351584265263,186.0,-43.0,7.105,17.029405205898023,133.0,-26.0,-22.5722,23.589768696619302,120.0,-80.0
1006223,4.656666666666666,17.120420231083376,117.0,-45.0,1.201,33.525277016006896,163.0,-102.0,8.465,12.770882571955104,107.0,-18,-63.6526,21.573481713436987,64.0,-120.0,3.21,7.420415531940693,35,-38.0,-64.8536,17.037457763410597,6,-137.0,-7.665,14.662972925024448,31.0,-111.0,31.4744,26.883559002483285,107.0,-105.0,0.44,11.512590209563324,77.0,-38.0,33.2812,24.31199141493761,147.0,-51.0,5.9816666666666665,6.01065697093273,58,-7,-64.0094,9.84689350201372,3.0,-92.0,-1.5266666666666666,28.328712564385196,150.0,-82.0,-44.6048,47.799529463792844,156,-171.0,12.105,28.47819004665383,159.0,-82.0,-34.296,38.96909010998332,135.0,-160.0,16.058333333333334,35.40826076716499,167.0,-66.0,34.7448,45.64967549676558,212.0,-85,13.933333333333334,26.080686766690445,220.0,-53.0,40.177,33.23536175521488,270.0,-59.0,10.358333333333333,27.976715268634063,253.0,-54,-114.0236,48.80898936712376,203.0,-248.0,7.153333333333333,20.5328960992409,180.0,-28.0,-137.318,47.94851901779657,113.0,-248.0
1006310,-7.01,37.44262143600525,165.0,-66.0,-26.0298,198.0532032323937,781.5,-692.0,21.18166666666667,29.76925702614845,226.0,-66,420.1392,224.03641557453278,820.25,-786.25,19.24125,38.95201717070204,94,-66.0,410.944,240.3955770873147,780,-895.5,-8.28,27.68462148317485,57.0,-194.0,-179.2014,167.79312036360088,631.25,-684.0,-10.386666666666667,35.24081346015346,67.0,-78.0,-218.2528,195.51247038501708,750.0,-635.5,22.897916666666667,29.179725647937282,147,-44,384.8068,220.35227160793738,741.75,-726.0,6.476666666666667,30.77806776838916,54.0,-234.0,-136.9112,151.76023514700978,650,-748.5,21.876666666666665,33.88202260130814,101.0,-197.0,-167.64,169.68862433130542,668.25,-838.25,16.008333333333333,22.30414603959442,95.0,-48.0,-164.8548,190.5296560569845,928.25,-818,17.135,22.194145812203118,114.0,-37.0,-164.6294,182.39308353169199,931.0,-699.25,13.198333333333334,24.48112872987863,147.0,-34,-47.5108,275.4078240961944,1213.75,-813.75,20.428333333333335,27.7130209568635,173.0,-31.0,-104.141,440.48235460572084,1912.0,-2463.0
1006354,11.505,30.210979930040892,250.0,-30.0,45.5942,43.384457197941295,349.0,-84.0,10.94,13.865054393450222,54.0,-18,-68.317,47.3489821537908,153.0,-234.0,-1.0433333333333332,28.406890987145278,41,-204.0,-113.9112,60.133046775961716,55,-412.0,-12.393333333333333,18.79189423365534,14.0,-150.0,11.6142,34.034167513838206,159.0,-236.0,6.03,28.45351354988226,227.0,-34.0,80.0044,46.78636105362331,360.0,-40.0,5.22,16.47012244439407,48,-82,-90.8622,49.58167818015038,45.0,-271.0,6.821666666666666,33.14749659560365,77.0,-213.0,118.791,43.560690065700285,246,-146.0,16.3,47.81523467124956,139.0,-217.0,101.043,56.1086156574906,243.0,-163.0,16.97,40.64963017461946,126.0,-175.0,126.8002,48.001361230281795,256.0,-83,15.843333333333334,27.76542434195611,92.0,-113.0,131.5626,37.488164548827946,241.0,-31.0,14.07,18.825030323127415,87.0,-73,104.08,25.65667944220374,206.0,-14.0,15.986666666666666,17.859073013146254,122.0,-33.0,158.191,43.72082934940736,328.0,44.0
1006493,1.37,19.089869040933728,104.0,-82.0,30.7822,37.193133279679465,190.0,-84.0,21.135,40.62482115914749,284.0,-16,-50.7864,71.78696243079241,330.0,-155.0,19.24125,45.51206851541819,244,-54.0,-81.5686,95.94534951752482,395,-283.0,-12.381666666666666,25.186027817467014,6.0,-122.0,10.2486,31.099395461005347,66.0,-153.0,-9.123333333333333,31.139762184205726,64.0,-139.25,56.4262,63.29175107041991,223.0,-233.0,20.428333333333335,38.014616002786696,271,-26,-65.9294,82.66439388055778,362.0,-210.0,-11.17,35.34045509988046,9.0,-229.0,-87.668,52.02730990547176,17,-343.0,22.151666666666667,63.528408321701946,193.0,-261.0,15.3616,61.86986055778694,226.0,-298.0,-7.958333333333333,63.2907834039751,73.0,-386.0,-107.4822,76.5092653419179,72.0,-525,32.67333333333333,55.267470440475996,219.0,-51.0,65.0522,52.825045907788855,285.0,-40.0,32.07333333333333,56.95994496622654,280.0,-3,54.8376,54.01482783680792,322.0,5.0,26.618333333333332,50.5603863107165,297.0,-3.0,16.2666,52.79108186464831,336.0,-39.0
1006509,6.083333333333333,13.322777071199866,89.0,-25.0,-46.6442,19.584728906982605,71.0,-100.0,8.951666666666666,21.99346866433053,177.0,-27,10.572,25.110436396048556,196.0,-53.0,2.35,10.270710783582604,93,-21.0,57.2162,18.395191153124774,172,5.0,-8.701666666666666,17.51207194734218,24.0,-134.0,18.2816,20.560581252484084,76.0,-122.0,1.5766666666666667,4.516723246878083,31.0,-12.0,-51.692,14.265831065872048,8.0,-92.0,5.886666666666667,15.809084589423753,135,-19,34.1396,19.72039836920137,184.0,-12.0,-0.8683333333333333,20.155917176408078,73.0,-161.0,131.0102,25.023630750952186,238,-53.0,6.23,30.232605467166294,103.0,-174.0,62.0938,34.44876487713311,199.0,-145.0,9.74,42.18244974710059,144.0,-217.0,55.9168,45.25493871126112,212.0,-193,21.466666666666665,40.361973302712656,170.0,-151.0,241.5996,77.6874409402189,512.0,-47.0,17.956666666666667,36.97568735744551,254.0,-66,151.7334,50.0109580436128,437.0,17.0,13.75,36.91875088172224,294.0,-41.0,135.1164,53.338579387156535,466.0,30.0
1006913,17.47833333333333,28.30493827153763,168.0,-26.0,124.945,176.97982815846555,610.0,-203.0,9.855,17.681175724481673,157.0,-7,141.6896,31.44719465771152,317.0,68.0,-7.858333333333333,19.329983546006677,30,-38.0,16.7446,157.9131551544709,317,-328.0,-15.1,21.525798475317938,11.0,-163.0,-133.069,99.60654716935028,60.0,-455.0,12.48,22.638159524719907,91.0,-28.0,54.3566,166.977469846803,460.0,-254.0,1.4483333333333333,11.681067183932964,73,-15,79.4618,71.64150292086285,271.0,-81.0,-5.7683333333333335,19.75326126379023,15.0,-157.0,-9.8244,49.97550164470587,99,-254.0,5.368333333333333,24.39055822558302,53.0,-148.0,-39.089,52.504303433147264,86.0,-249.0,4.473333333333334,25.223123429812485,48.0,-158.0,-54.3032,60.29538016929655,87.0,-280,4.878333333333333,15.161800593010785,68.0,-88.0,-27.3716,43.273482797667214,97.0,-198.0,9.125,25.44050657907582,219.0,-49,68.9472,46.37346668257615,336.0,-59.0,6.806666666666667,26.558538279723823,239.0,-10.0,45.456,57.303777048288886,354.0,-79.0
1006926,5.28,9.991076018127377,79.0,-11.0,92.5706,23.34867481550077,197.0,29.0,17.96,24.07574990178568,179.0,-5,36.976,30.10740480346986,225.0,-25.0,12.025,15.452110157947144,104,-3.0,-55.5946,36.71218123239206,86,-140.0,-12.721666666666666,16.76357749871893,4.0,-130.0,-64.529,19.724298694757184,-23.0,-195.0,-3.5166666666666666,4.846963539738622,8.0,-20.0,74.3316,26.829946728236344,134.0,10.0,15.208333333333334,19.616360447907308,142,-4,-9.0542,31.48305039795223,152.0,-81.0,-2.48,11.991091137451447,28.0,-86.0,53.0302,29.549228212594656,126,-75.0,5.006666666666667,17.42182411676675,47.0,-92.0,52.4048,22.90092873575218,128.0,-63.0,21.831666666666667,40.14191488401563,230.0,-105.0,81.936,43.007249435414955,316.0,-68,21.718333333333334,42.20508259940054,304.0,-61.0,50.3234,45.33351533291898,347.0,-48.0,18.276666666666667,37.65160628121403,298.0,-30,42.4058,40.00981787461673,329.0,-17.0,16.886666666666667,31.997038751873415,257.0,-20.0,64.397,34.265635715684596,319.0,10.0
1007164,12.043333333333333,14.596510618028619,97.0,-10.0,-240.1146,198.0532032323937,88.0,-763.0,21.93,27.956783911363384,269.0,-9,-53.4704,224.03641557453278,407.0,-786.25,9.185,17.631244283940937,176,-14.0,186.6442,85.94360945620099,416,-47.0,-18.175,20.522289711433274,8.0,-182.0,147.0468,167.79312036360088,631.25,-221.0,1.1783333333333332,7.993947536869517,27.0,-42.0,-213.127,123.12815628847856,-22.0,-635.5,15.781666666666666,22.229949705046316,223,-8,66.8388,207.94603918940126,403.0,-543.0,-8.95,22.359356728969942,28.0,-217.0,-88.6228,111.1771582662554,43,-577.0,-2.0366666666666666,25.03142003340779,56.0,-180.0,36.6696,138.3446769335199,222.0,-529.0,-5.931666666666667,35.263300051974085,171.0,-115.0,-272.652,190.5296560569845,309.0,-693,9.516666666666667,34.05705588502264,284.0,-47.0,-176.2364,121.96810941815897,364.0,-504.0,32.07333333333333,39.95917913599105,290.0,-21,384.8144,275.4078240961944,1213.75,-813.75,-3.5120833333333334,52.57714371917389,41.75,-163.75,316.6782,536.0968862282751,6239.25,-5733.25
1007171,15.856666666666667,21.503862960459504,131.0,-8.0,68.0746,24.482659880821775,219.0,11.0,15.195,15.961630294762081,121.0,-64,20.6258,31.00610543683292,176.0,-88.0,-1.3616666666666666,15.244043554414587,27,-82.0,-47.4488,36.59961445917156,35,-197.0,-16.711666666666666,17.327488678077064,32.0,-125.0,-44.0976,21.10990464781876,17.0,-178.0,8.338333333333333,16.791283370315153,96.0,-8.0,58.0076,27.00345056173377,196.0,-9.0,7.035,11.285851393079152,56,-65,-13.1544,31.630917796358677,105.0,-133.0,-16.963333333333335,15.348571775756714,24.0,-129.0,34.1472,16.672862146614182,89,-88.0,2.7,20.057168294652165,58.0,-90.0,38.863,22.678770491364826,116.0,-74.0,10.55,26.140916204295518,84.0,-157.0,53.8154,29.719423326168357,148.0,-129,17.445,26.883581885604457,170.0,-121.0,6.729,28.570235543306254,191.0,-146.0,17.84,25.232077467646878,209.0,-99,119.16,32.5435646480222,335.0,-52.0,17.388333333333332,21.430216919625945,198.0,-60.0,98.7808,23.589081189397774,290.0,6.0
1007370,7.235,17.599898910694534,180.0,-7.0,-1.2748,20.36312561862741,215.0,-33.0,14.621666666666666,19.676513848296963,163.0,-26,21.9912,21.661494005723615,179.0,-27.0,6.598333333333334,8.084573616187532,62,-29.0,23.266,11.048114952334629,103,-53.0,-12.085,18.273052335794002,11.0,-171.0,-10.1112,20.286774868371758,21.0,-188.0,0.3233333333333333,9.370812249865121,100.0,-32.0,-12.0166,12.294418426261569,134.0,-63.0,10.89,12.298966081206446,81,-27,22.876,13.855808312761836,106.0,-31.0,-3.7466666666666666,15.818527814629975,41.0,-125.0,6.7738,17.875889727786976,60,-139.0,5.416666666666667,22.71680117348293,98.0,-150.0,22.9922,25.78739496653355,127.0,-161.0,18.106666666666666,45.638053809902495,171.0,-303.0,15.6252,49.83333748566315,189.0,-337,19.356666666666666,46.38411497724433,314.0,-242.0,10.6,52.24005742722724,322.0,-293.0,18.14666666666667,48.50616959613374,432.0,-173,-2.8168,54.33156759895668,454.0,-222.0,13.86,39.00038974164232,384.0,-70.0,6.4066,42.799239203985856,397.0,-95.0
1007482,-0.705,12.65680218960013,87.0,-20.0,-169.3404,60.436847434656954,0.0,-256.0,-1.615,3.9736769286560443,11.0,-12,-55.6926,42.87317232535983,18.0,-118.0,-1.5,9.406912352095134,11,-77.0,113.6478,22.34498053612936,147,4.0,0.015,8.064620780503775,14.0,-50.0,112.7672,51.197658190194595,186.0,-8.0,0.15833333333333333,10.946381314794808,81.0,-16.0,-141.2448,40.20732859765742,-8.0,-201.0,-1.1966666666666668,4.361713004116041,10,-33,29.2178,15.986618252776289,58.0,-38.0,-8.485,41.4684993900993,63.0,-322.0,68.6858,41.55260134287624,151,-271.0,3.986666666666667,56.54396362320404,116.0,-381.0,64.2788,55.252969789505435,187.0,-337.0,10.383333333333333,31.63104575501031,121.0,-177.0,64.907,32.75277012712054,188.0,-139,21.441666666666666,43.76208325200659,304.0,-47.0,63.299,43.69400415388821,367.0,-17.0,19.735,47.36343288867477,365.0,-8,61.8316,47.74355706731538,432.0,16.0,15.278333333333334,39.56582107352535,303.0,-13.0,27.6856,39.40604462059089,336.0,-13.0
1007595,12.98,17.95483964469376,162.0,-38.0,108.4534,54.73122169694369,345.0,0.0,27.311666666666667,31.298368390203485,165.0,-21,429.855,156.88102504050642,820.25,110.0,13.728333333333333,24.13153947062272,68,-32.0,333.8134,138.6949536949344,699,49.0,-21.428333333333335,22.6400426359041,21.0,-165.0,-275.1088,94.84311552537696,-57.0,-515.0,-0.45,14.143932739282004,80.0,-45.0,-112.4288,70.45056515429808,91.0,-344.0,20.796666666666667,26.501358246114272,88,-24,384.8068,145.51751149480256,740.0,86.0,-4.105,15.671544542046048,18.0,-100.0,-146.812,42.37146039494037,-59,-288.0,10.975,42.84776588886131,102.0,-254.0,-150.1862,59.116122416477886,8.0,-469.0,19.928333333333335,62.27904835407241,153.0,-374.0,-157.9926,83.01126998932133,53.0,-609,19.141666666666666,54.77853835115436,296.0,-277.0,-180.9296,98.56011284409124,205.0,-592.0,16.4,55.17227564637878,425.0,-123,-125.3478,89.37129312682009,368.0,-360.0,14.705,45.834426380905725,367.0,-42.0,-148.7272,96.53412650539705,322.0,-314.0
1007832,8.075,23.78051110328231,172.0,-33.0,-13.4998,28.58757072505462,176.0,-88.0,8.558333333333334,19.022879134230852,146.0,-27,-51.119,28.48217756773523,109.0,-119.0,0.0,10.767543823918247,26,-81.0,-37.6192,20.95374408930299,22,-148.0,-9.46,20.898925012226506,29.0,-154.0,32.56,26.55264958530504,103.0,-135.0,3.845,15.826274830167712,124.0,-22.0,12.309,20.63079055683519,159.0,-41.0,4.523333333333333,9.87198674139214,74,-15,-44.1234,20.51449664115598,48.0,-89.0,-0.6466666666666666,26.177633370663763,75.0,-185.0,-24.9118,30.606731624921995,76,-236.0,6.1883333333333335,31.804552041422554,107.0,-204.0,4.1356,34.31625872148653,121.0,-225.0,9.148333333333333,27.914386921840542,135.0,-145.0,-21.6992,36.235125491158435,140.0,-220,6.01,23.96462462325111,151.0,-94.0,-101.0432,63.84882249313608,129.0,-296.0,4.278333333333333,24.50062986718686,174.0,-61,-146.4456,102.95116240548234,166.0,-368.0,4.091666666666667,24.07176625334243,175.0,-27.0,-130.2158,95.10647733125225,172.0,-324.0
1007914,7.24,16.0760401426056,125.0,-15.0,4.7394,20.81475168336149,146.0,-43.0,16.591666666666665,27.93614618892321,255.0,-9,18.4246,44.305294433509864,307.0,-73.0,8.543333333333333,12.682197058168676,129,-8.0,13.6852,35.10925947609832,211,-62.0,-13.098333333333333,21.886799611231933,9.0,-192.0,-11.3316,29.83050856824268,47.0,-210.0,-0.735,3.926469062233495,21.0,-16.0,-4.2272,18.49529616307887,39.0,-66.0,12.818333333333333,20.22602277320537,193,-8,16.3012,38.59444621393083,259.0,-66.0,-5.55,24.1203406554164,19.0,-216.0,3.649,33.62648062167672,59,-249.0,0.24666666666666667,32.13812619857536,52.0,-225.0,-162.4522,83.79260179252104,21.0,-517.0,7.536666666666667,24.408850626133315,119.0,-152.0,-41.6808,41.607534310026104,121.0,-264,12.835,38.53190593521166,315.0,-82.0,-97.9228,81.04868931796491,322.0,-315.0,14.47,39.21435663971381,345.0,-40,-104.9926,75.72106804080354,330.0,-255.0,11.145,38.09068969796513,325.0,-16.0,-133.4792,86.38732295516513,317.0,-298.0
1008020,5.733333333333333,18.091127352624795,165.0,-24.0,13.215,23.82339973639363,178.0,-23.0,12.776666666666667,25.856980789635042,231.0,-10,15.3354,34.93527882871411,250.0,-35.0,6.421666666666667,11.666641785687755,78,-12.0,2.1204,19.049879365497304,91,-39.0,-10.338333333333333,21.648722761914204,6.0,-198.0,-14.0238,28.345758652045284,16.0,-204.0,-0.34,8.022119420701738,66.0,-38.0,5.793,12.652705283851356,82.0,-47.0,9.825,17.934167808961753,152,-10,8.9736,25.48977251840432,171.0,-37.0,-3.4516666666666667,24.90831850116654,29.0,-179.0,-49.1342,32.68578575405523,-6,-241.0,3.1966666666666668,27.292758298778736,56.0,-193.0,-60.0902,34.112485455621666,2.0,-275.0,4.068333333333333,48.43325645210691,229.0,-402.0,-37.0842,65.38664626940275,212.0,-463,1.995,46.81582682882646,338.0,-285.0,-53.5076,62.348757343190094,327.0,-355.0,3.0883333333333334,47.43701645925422,388.0,-170,-49.4994,62.87788800238125,376.0,-240.0,3.8533333333333335,36.95842468985327,315.0,-68.0,-59.7228,49.0765561155222,269.0,-157.0
1008191,11.331666666666667,16.01119391412007,109.0,-10.0,48.6896,27.74915587617036,199.0,-12.0,15.648333333333333,23.164441080146,200.0,-23,119.5044,34.76606363452728,348.0,33.0,3.611666666666667,11.092979636789307,90,-29.0,70.8148,17.587111785623016,188,24.0,-14.705,19.13002809720885,15.0,-156.0,-83.8482,30.20005888669756,-12.0,-254.0,3.5733333333333333,7.455062411244828,40.0,-9.0,-10.811,15.417434254764961,67.0,-42.0,9.848333333333333,16.29515256824011,145,-26,95.4092,23.80601090817191,268.0,35.0,-1.8816666666666666,14.824787706930428,15.0,-123.0,148.2928,20.629771403483847,185,2.0,17.375,46.62375333453968,122.0,-224.0,271.5978,82.78270855172595,450.0,-60.0,24.113333333333333,53.00446983247943,181.0,-207.0,-48.3262,77.13831339587352,166.0,-372,25.725,47.702753676631005,322.0,-97.0,24.2102,58.34313683682084,357.0,-148.0,23.338333333333335,52.90614832470377,434.0,-61,47.0458,59.96874604625312,485.0,-62.0,14.56,39.609044421697426,349.0,-19.0,12.2734,53.45851337663628,380.0,-80.0
1008204,8.44,16.83101502187752,122.0,-19.0,22.2238,48.65200626449027,190.0,-102.0,4.471666666666667,18.94674634923427,102.0,-117,60.6758,23.97874672204534,192.0,-93.0,-4.323333333333333,23.350420172284316,25,-181.0,38.452,48.71976699451672,155,-182.0,-7.64,13.632695991622493,32.0,-104.0,-41.1982,29.62673989422393,60.0,-176.0,6.163333333333333,17.99036748435735,128.0,-20.0,-7.8612,47.18865472293102,164.0,-121.0,0.2783333333333333,19.508310978201628,52,-148,49.8158,29.70383595362727,140.0,-131.0,-7.99,11.410809202973585,36.0,-84.0,112.3992,15.664655737040633,170,18.0,-2.171666666666667,8.000888458744436,53.0,-20.0,5.8066,15.981426608410152,95.0,-37.0,10.358333333333333,56.210674525000634,360.0,-298.0,70.4636,70.89456872737149,501.0,-307,14.748333333333333,58.978117387345925,478.0,-188.0,-44.5238,64.47160176046505,466.0,-284.0,14.298333333333334,39.69915192908897,339.0,-97,-26.6266,43.18845647207133,333.0,-160.0,13.126666666666667,25.02972810257612,222.0,-24.0,-22.9844,28.102999068426843,207.0,-82.0
1008241,18.363333333333333,23.364816617203644,157.0,-17.0,121.422,90.11195434569156,370.0,-31.0,13.465,13.64900881627185,115.0,-7,70.8846,58.98359842227329,245.0,-29.0,-5.2,11.33225485064645,12,-62.0,-50.5374,33.88899233143411,23,-154.0,-17.101666666666667,18.309960783379328,10.0,-137.0,-95.9042,74.2447157874552,25.0,-307.0,11.543333333333333,17.05710376614063,101.0,-15.0,86.2218,61.36004730082923,248.0,-24.0,4.098333333333334,4.570047106491962,38,-12,10.4236,16.845502754147766,78.0,-34.0,-3.5483333333333333,27.517709398777278,40.0,-195.0,-74.4762,49.93287728100594,25,-332.0,11.593333333333334,40.170237185702,121.0,-213.0,-37.8996,51.274429493071885,115.0,-315.0,7.366666666666666,18.25674913255065,138.0,-75.0,24.2422,30.015721533223214,200.0,-98,8.966666666666667,20.816553242285064,174.0,-56.0,-86.7692,27.407479478419756,134.0,-183.0,11.863333333333333,21.477926394841337,193.0,-34,10.9014,25.82713453017969,233.0,-55.0,6.346666666666667,24.79260283946717,177.0,-28.0,-352.1654,144.75589398307758,81.0,-510.0
1008253,4.526666666666666,9.411302897166909,70.0,-6.0,125.4926,29.23406138804528,222.0,55.0,12.026666666666667,17.06055750033457,132.0,-71,122.2028,49.38836778189779,307.0,-36.0,6.823333333333333,11.287107197545744,64,-88.0,-3.2898,24.07381598251511,88,-131.0,-9.393333333333333,12.613694498000532,31.0,-102.0,-123.6048,38.76207704651545,-16.0,-264.0,-1.205,5.929556616364048,57.0,-8.0,64.6404,10.36003319685801,136.0,37.0,9.666666666666666,13.641195776845304,98,-78,59.7008,35.99765102558777,197.0,-82.0,-2.2783333333333333,20.48399856527583,32.0,-164.0,91.5046,30.32273039882787,155,-103.0,1.75,26.978896073289086,64.0,-185.0,42.5166,33.07708155868652,128.0,-176.0,11.593333333333334,30.316078608920087,204.0,-175.0,107.9662,34.97060276232024,338.0,-96,10.828333333333333,27.57593511056737,228.0,-104.0,151.0412,37.21077669923056,407.0,5.0,8.756666666666666,20.52545059730047,178.0,-56,155.9576,33.86501738136273,357.0,57.0,7.053333333333334,13.588125535023424,125.0,-20.0,18.0776,17.20216202225755,146.0,-22.0
1008458,7.025,11.72082370541138,85.0,-23.0,-32.6136,21.501439371353722,74.0,-96.0,13.635,16.103884883261347,95.0,-23,148.1138,71.29058598132013,359.0,8.0,5.948333333333333,11.35997346925697,27,-16.0,180.7274,84.04104645493176,333,27.0,-11.476666666666667,12.898686841001382,17.0,-91.0,-57.4968,31.73751076817462,16.0,-195.0,0.31166666666666665,8.09101542178456,41.0,-16.0,-106.4158,49.9214834551218,7.0,-204.0,10.086666666666666,12.66895768754829,52,-17,164.6596,77.18154784558288,343.0,21.0,-9.803333333333333,11.874818829027339,36.0,-99.0,12.2738,42.06419895302893,101,-152.0,-4.25,10.868800915157722,32.0,-79.0,51.192,14.00069769690068,96.0,-39.0,3.4466666666666668,24.978000097863895,63.0,-154.0,108.0766,34.07964102569157,200.0,-99,9.208333333333334,24.239119838714352,167.0,-79.0,-2.6208,31.463671231437694,187.0,-118.0,8.315,25.958475334015027,213.0,-67,-46.5136,39.53183799218043,208.0,-158.0,8.936666666666667,18.128779759144173,157.0,-26.0,46.2918,31.02680539082295,215.0,-40.0
1008556,12.133333333333333,22.928197099253623,188.0,-30.0,4.6564,29.30564346742791,205.0,-61.0,7.698333333333333,10.956307036994211,108.0,-11,35.744,19.63877959548403,165.0,-3.0,-4.7283333333333335,12.957283558764246,20,-112.0,31.0876,15.27359572072012,71,-97.0,-11.171666666666667,16.803438057598676,19.0,-146.0,-19.955,23.752047806452392,32.0,-179.0,8.181666666666667,17.88105134555075,144.0,-25.0,-12.9648,21.203555384887697,142.0,-62.0,1.5616666666666668,4.361713004116041,18,-31,33.6652,9.740508660229198,72.0,-19.0,-0.018333333333333333,24.718710805559596,67.0,-139.0,-6.0902,26.646036552553177,78,-166.0,13.006666666666666,49.8465306939432,190.0,-251.0,8.5504,52.95566315173477,204.0,-277.0,11.933333333333334,38.14112682598084,197.0,-173.0,29.4328,40.617664681268906,243.0,-171,13.006666666666666,35.89879230404401,251.0,-126.0,38.1292,40.74861110958262,303.0,-118.0,16.865,36.8256718653351,310.0,-84,44.554,39.46284688159231,352.0,-69.0,12.696666666666667,31.738483300596172,277.0,-42.0,14.9416,34.19138765010862,296.0,-58.0
1008589,22.477083333333333,25.78491026205486,221.0,-9.0,-63.7846,32.20407742569254,167.0,-158.0,27.891666666666666,24.71864253734191,203.0,-1,44.2922,41.089093676546334,258.0,-62.0,-1.0983333333333334,9.542815651345025,35,-75.0,108.0768,44.49881011622671,214,-3.0,-22.88625,24.76181418367133,0.0,-213.0,9.9984,29.45822121989038,80.0,-197.0,15.59,15.164494716277229,134.0,-14.0,-85.68,32.96565485471205,56.0,-174.0,14.856666666666667,13.66758167668622,93,-7,76.4298,39.69104019750553,207.0,-18.0,-6.318333333333333,17.572336134453558,34.0,-159.0,106.4044,33.88890173257316,190,-90.0,3.691666666666667,18.774981506130853,84.0,-121.0,75.113,30.324409821132544,192.0,-88.0,21.901666666666667,44.04874569408557,178.0,-150.0,52.7906,50.68190556441224,246.0,-153,21.673333333333332,39.09505453236878,196.0,-137.0,-66.7062,39.819230047302526,128.0,-242.0,-4.33,11.832007478104291,49.0,-26,-24.9816,17.761725056700357,6.0,-66.0,23.278333333333332,48.33764092873747,395.0,-51.0,-86.7326,49.87438919164825,314.0,-192.0
1008706,1.8783333333333334,15.119750787922694,106.0,-27.0,-85.8588,21.007533471590612,36.0,-143.0,-4.0625,6.78904018743936,23.0,-21,-61.728,23.86209580066261,10.0,-118.0,-8.983333333333333,15.084530339243432,19,-112.0,24.1308,20.774582820360074,70,-96.0,1.095,8.979753615773653,21.0,-51.0,74.0448,19.93815420142998,130.0,-6.0,5.116666666666666,14.68217929630642,109.0,-23.0,-54.748,17.15199393656609,62.0,-97.0,-7.573333333333333,8.855579534332517,13,-62,-18.548,19.75353375981118,38.0,-97.0,-2.82,7.647614899781052,14.0,-30.0,28.7622,12.416257901516596,70,-10.0,7.973333333333334,18.99313794213291,118.0,-55.0,49.0892,23.287637135613394,173.0,-34.0,4.29,30.127604728332898,197.0,-142.0,49.3374,33.3855531815784,269.0,-112,2.79,31.596717656533038,238.0,-130.0,47.8958,35.65058403953573,331.0,-104.0,4.166666666666667,23.384515294432678,196.0,-83,14.3726,28.216225283336534,240.0,-87.0,3.0033333333333334,13.018832086208382,111.0,-29.0,60.2482,16.543971613853792,193.0,17.0
1008788,13.783333333333333,23.996452284081958,198.0,-19.0,14.1368,32.09279180376802,217.0,-62.0,21.3,28.841520995490743,237.0,-1,38.3626,35.85948021430316,295.0,-29.0,6.783333333333333,19.145836507072644,147,-59.0,24.2258,23.931970549037537,207,-79.0,-18.795,24.734718683125006,0.0,-184.0,-25.9982,31.855269528917816,41.0,-211.0,3.2733333333333334,16.147712600310367,126.0,-67.0,-4.796,21.904327974169853,147.0,-95.0,14.363333333333333,21.365111487864713,186,-6,31.544,25.918187899619834,247.0,-7.0,-6.9366666666666665,24.417056652175656,8.0,-175.0,22.2958,33.185923256103635,74,-178.0,1.5433333333333332,36.074849811037176,52.0,-238.0,-5.6204,47.7185781833449,84.0,-287.0,9.35,22.65923284962078,66.0,-112.0,-7.9542,27.556576390400892,60.0,-164,18.18,29.638279302280687,243.0,-5.0,5.7206,34.552651644121326,245.0,-34.0,23.38,52.36403600436722,430.0,-3,44.4146,60.666121574071305,512.0,6.0,22.425,52.6401720013654,419.0,-2.0,2.5728,61.73579431869327,430.0,-41.0
1008792,13.075,26.808569059164647,202.0,-3.0,-26.9618,31.558021813161865,195.0,-76.0,17.211666666666666,22.475991573726446,165.0,-9,82.2444,28.67508097006877,257.0,21.0,3.5566666666666666,8.881072883134985,19,-56.0,109.2062,30.291333439781088,171,-4.0,-16.326666666666668,24.35364357864251,4.0,-182.0,-27.3894,26.072655554047426,5.0,-207.0,4.611666666666666,16.440525049063638,128.0,-9.0,-67.8364,27.41053146219533,95.0,-119.0,10.581666666666667,10.75174391539448,78,-10,95.975,24.922013863249493,210.0,28.0,-4.695,25.00330594808081,22.0,-214.0,-23.5894,30.153739529948854,27,-269.0,12.601666666666667,33.30850237635363,111.0,-142.0,-107.4666,50.25073615818977,49.0,-320.0,16.52166666666667,30.411448456497794,111.0,-137.0,-40.4216,32.87466278823252,70.0,-213,12.066666666666666,23.022356284465953,138.0,-71.0,-22.0894,27.269789284847803,150.0,-121.0,12.28,24.112547217855962,183.0,-25,7.1978,27.679730402588824,221.0,-43.0,8.636666666666667,20.883916991045737,162.0,-10.0,-87.009,42.74331899841191,129.0,-161.0
1008815,7.298333333333333,17.740330621371054,169.0,-15.0,18.9998,38.969246848765245,227.0,-56.0,3.4583333333333335,11.778296306719785,76.0,-74,-33.5166,16.76076741799134,54.0,-124.0,-4.201666666666667,13.59206866358302,24,-106.0,-52.5164,41.43729396377133,31,-204.0,-6.583333333333333,13.475399396266106,41.0,-120.0,7.5104,21.691221538677805,79.0,-130.0,5.42,14.670841829970087,137.0,-20.0,36.0146,39.34099117765083,212.0,-42.0,-0.26,9.041887708511611,17,-77,-42.7672,24.887784235644602,14.0,-152.0,-7.123333333333333,10.979744481948972,20.0,-94.0,-12.9134,20.77935274352885,45,-122.0,4.895,15.124174082133102,38.0,-107.0,59.8358,20.322855074029338,111.0,-81.0,2.445,21.559691749497098,48.0,-166.0,-2.7442,27.223246800482855,64.0,-206,2.755,21.128219084122225,96.0,-156.0,-12.5666,29.266451176047976,110.0,-202.0,4.383333333333334,18.385675281467243,106.0,-125,-6.6072,25.632676570346685,121.0,-155.0,4.175,13.693832249106407,96.0,-76.0,-72.744,45.02624639029996,86.0,-199.0
1009075,10.12,20.409203806126293,196.0,-30.0,130.4912,39.49816606578082,359.0,36.0,13.203333333333333,17.870328915707052,143.0,-2,90.217,35.13462552810262,268.0,31.0,2.535,11.658992595131593,49,-82.0,-40.2742,17.165821109402252,19,-145.0,-12.88,18.27746153052989,8.0,-170.0,-110.101,36.3815722447505,-42.0,-311.0,3.485,13.951813800840855,129.0,-39.0,85.6292,24.87476044829377,239.0,9.0,8.036666666666667,11.182068482868255,55,-9,25.2162,19.352763563894435,101.0,-11.0,-10.768333333333333,16.0425890643901,22.0,-138.0,-71.7182,28.721643211348475,-8,-235.0,-2.4916666666666667,10.920466895798102,47.0,-80.0,70.043,24.120736949770006,228.0,-53.0,4.693333333333333,21.276652827819408,90.0,-140.0,-43.7756,27.54472807344447,65.0,-210,6.578333333333333,19.08325261991665,129.0,-87.0,-47.8718,25.71618487956563,94.0,-166.0,13.333333333333334,24.11242187937348,162.0,-56,-337.45140000000004,117.65960904235574,269.0,-813.75,9.18,17.457880741945743,156.0,-13.0,118.7604,20.78225665898677,278.0,76.0
1009382,1.7216666666666667,7.37533539306614,43.0,-13.0,-74.8954,15.256711927541923,11.0,-105.0,3.5716666666666668,16.974339375133933,95.0,-35,-160.4624,77.2376163940861,87.0,-309.0,1.2833333333333334,13.048488631085041,56,-23.0,-85.567,67.56587534399299,77,-235.0,-3.8666666666666667,10.7389736732872,23.0,-70.0,117.9368,44.241925882131305,194.0,-48.0,0.055,5.125619474756197,17.0,-13.0,5.5862,30.122286924468398,82.0,-45.0,2.6683333333333334,14.915148805455775,76,-28,-122.7718,72.16550786047307,82.0,-271.0,0.7766666666666666,7.647614899781052,15.0,-55.0,65.542,26.625180487651157,125,-28.0,4.931666666666667,10.265005141526016,37.0,-58.0,84.599,32.64260098399023,159.0,-18.0,12.35,25.621686777675926,99.0,-127.0,118.2264,44.07397807141987,244.0,-76,11.395,18.166607874522605,98.0,-64.0,69.9974,25.77085550073959,185.0,-51.0,15.108333333333333,28.919023679155487,198.0,-101,117.6402,34.73979769601429,328.0,-55.0,11.985,25.39261260681933,197.0,-75.0,120.782,35.86282303444613,345.0,-32.0
1009514,9.65,11.6870654999448,81.0,-8.0,51.4424,40.94161064540573,193.0,-47.0,10.596666666666666,15.392443672861768,54.0,-83,13.3458,26.05172206131487,91.0,-122.0,0.38166666666666665,15.896729135964488,25,-100.0,-38.0966,48.30777647998301,76,-221.0,-11.326666666666666,11.1238462572779,35.0,-65.0,-32.1424,24.37139557432032,51.0,-122.0,4.328333333333333,11.639896787438548,82.0,-14.0,45.018,42.842185705213495,194.0,-51.0,5.696666666666666,14.537009856072725,36,-91,-12.127,32.97446998815902,74.0,-152.0,-8.16,19.155444830822038,19.0,-143.0,-77.2204,27.149007787394368,-27,-253.0,0.5916666666666667,33.10712305867458,57.0,-219.0,-51.3462,42.61409092729774,55.0,-322.0,3.1366666666666667,38.430820819869155,103.0,-258.0,-11.8498,50.20360186241621,157.0,-315,7.145,35.23791483142365,127.0,-223.0,32.5458,53.11944937929986,240.0,-245.0,8.243333333333334,28.30519602868389,135.0,-167,-10.5324,42.20417692883016,163.0,-226.0,13.806666666666667,24.04147712230308,120.0,-115.0,184.0662,80.60797614107429,445.0,-47.0
1009539,16.011666666666667,38.67848063056367,300.25,-46.0,-10.5132,47.6380627834508,325.0,-101.0,17.14666666666667,21.627802066373324,199.0,-23,-54.156,29.930908171988367,153.0,-122.0,0.39,28.5069213817744,84,-257.0,-43.6428,37.3031152607929,77,-326.0,-17.808333333333334,27.904090450844098,20.0,-217.0,32.5792,35.14014979137112,93.0,-196.0,7.581666666666667,32.156492302834,264.25,-62.0,16.8102,40.084527887453035,314.0,-80.0,8.935,16.38049983974848,101,-112,-48.6484,24.00957262093601,62.0,-193.0,-8.961666666666666,23.468635748353346,56.0,-189.0,14.944,34.802581283577226,119,-200.0,4.453333333333333,18.63100879954945,66.0,-88.0,-31.5616,35.2865952656246,79.0,-168.0,10.515,32.58051219671047,139.0,-159.0,-6.566,41.37907737009128,151.0,-198,6.145,17.909047294593872,112.0,-87.0,-18.1904,27.728486216164054,112.0,-152.0,9.983333333333333,17.62081313548145,141.0,-72,99.2936,24.05805892086891,251.0,-4.0,10.093333333333334,15.94609530749003,139.0,-52.0,107.5738,20.96548958550694,246.0,28.0
1009592,-7.585,10.809383654954615,68.0,-30.0,-27.9838,21.18654142515951,70.0,-93.0,1.025,2.9946132193212085,9.0,-4,30.6692,26.767588075132956,79.0,-20.0,8.205,10.657374989492801,31,-68.0,58.653,26.020126652266704,126,-47.0,1.9783333333333333,5.800965197466902,13.0,-36.0,-1.0916,20.329112362324135,51.0,-67.0,-8.17,10.638347302722043,68.0,-31.0,-43.0666,19.591757563832807,55.0,-97.0,4.658333333333333,5.724065911181977,17,-34,44.9188,24.184007247766033,96.0,-25.0,1.1883333333333332,40.28191733133974,73.0,-271.0,-36.9298,50.905371739729,40,-333.0,9.245,54.744481989816414,102.0,-365.0,-5.858,68.64285422387388,101.0,-407.0,9.848333333333333,47.73260936950988,98.0,-327.0,-27.1612,59.75642906466216,76.0,-391,9.86,33.36885374117607,75.0,-226.0,-2.9816,45.78854072188805,93.0,-270.0,6.681666666666667,19.683080650367945,102.0,-117,-49.3582,28.52721319652517,72.0,-198.0,6.361666666666666,12.247483981981317,99.0,-52.0,-66.3478,21.699429374064195,57.0,-148.0
1009700,7.89,17.425782622309967,135.0,-3.0,6.7802,19.342892440377163,153.0,-30.0,17.105,19.033408566693108,140.0,-2,40.132,20.537170593828158,178.0,-2.0,8.38,6.292238605350774,47,-17.0,33.3518,10.203814698558777,84,4.0,-13.728333333333333,18.03416749457047,0.0,-136.0,-23.2074,19.390966588594804,15.0,-163.0,-0.22166666666666668,8.897332777611252,75.0,-8.0,-13.0402,11.223893440335221,70.0,-35.0,13.0,11.274602727664805,79,-3,36.9872,12.708809391913942,113.0,8.0,-10.46,21.887022029808744,6.0,-164.0,37.2572,20.645111967727374,60,-130.0,-6.055,16.75436186987337,11.0,-121.0,36.6704,17.376483068791565,66.0,-93.0,7.198333333333333,33.689053571680454,83.0,-217.0,45.508,32.59996220856705,135.0,-193,9.816666666666666,24.458258091877454,141.0,-101.0,64.4722,26.58042940134715,220.0,-63.0,9.78,23.46845258355707,190.0,-34,5.9666,22.402479426170668,198.0,-43.0,8.875,22.507910646407556,181.0,-5.0,32.9716,24.612175715283687,223.0,3.0
1009738,14.376666666666667,21.118509785388635,155.0,-19.0,205.5466,83.86810018380051,476.0,43.0,8.725,28.51092261455833,219.0,-18,-488.5092,104.60563997873155,-80.0,-608.0,-6.183333333333334,21.89930871562439,67,-42.0,-507.9624,175.64313674709868,-233,-895.5,-12.485,22.717022435463086,16.0,-188.0,141.7334,35.71506579078359,201.0,-70.0,10.038333333333334,16.034448246059345,48.0,-25.0,370.73345,127.30538705710768,645.0,157.0,1.5216666666666667,23.11629001135106,142,-29,-440.87474999999995,138.34778896317786,-190.0,-726.0,-6.761666666666667,23.717466079288958,34.0,-194.0,16.2234,37.27527722821119,91,-230.0,13.793333333333333,26.942109956142797,164.0,-85.0,35.571,48.889227433045,229.0,-135.0,6.411666666666667,27.02145192044441,78.0,-150.0,-31.1668,51.621721956556236,119.0,-259,14.348333333333333,34.905639428162445,290.0,-41.0,45.2066,57.08074208031988,361.0,-89.0,10.81,37.35983449285253,315.0,-29,-23.1076,74.14597509130216,350.0,-168.0,3.0383333333333336,40.24380114446889,294.0,-41.0,-357.4814,203.6118978817299,238.0,-635.0
1009793,10.116666666666667,17.066723632717427,158.0,-9.0,-57.9652,18.471935170955966,106.0,-88.0,15.08,20.07328905120766,138.0,-11,-110.4106,92.68130775749769,118.0,-322.0,4.168333333333333,13.137604952535638,37,-35.0,-52.4454,91.54222533257536,102,-265.0,-13.715,17.487627292841452,5.0,-149.0,84.4438,48.68224359620251,196.0,-105.0,2.8216666666666668,11.217539713423003,89.0,-20.0,-2.5148,47.044597787206136,154.0,-91.0,9.89,14.74667985231478,59,-14,-81.1892,91.65458964700022,74.0,-290.0,-6.071666666666666,10.422725038214441,23.0,-106.0,67.4654,39.760648923778895,168,-73.0,1.925,14.130677325120217,53.0,-71.0,41.9786,45.60155854836543,162.0,-78.0,9.403333333333334,16.605540909253417,60.0,-51.0,-225.6698,25.80000713100677,-116.5,-313,10.28,25.104148395567346,179.0,-59.0,38.4128,47.911852355758484,297.0,-79.0,8.725,24.41500989828457,203.0,-39,71.5934,46.7215804146221,357.0,-19.0,9.871666666666666,21.05853422935435,190.0,-18.0,-357.4814,26.82281640618673,-70.25,-451.0
1009904,9.138333333333334,20.08056765189227,171.0,-8.0,-14.5636,24.015477406039633,154.0,-47.0,14.616666666666667,20.537682169341526,154.0,-10,-73.4244,50.223706400862135,114.0,-168.0,4.795,6.597447107278188,23,-40.0,-58.8608,44.35997546617897,16,-179.0,-13.063333333333333,20.05748377926692,5.0,-162.0,44.2434,32.51983635321679,106.0,-133.0,1.9916666666666667,10.78092129128531,100.0,-8.0,22.399,25.335457347362016,160.0,-24.0,9.928333333333333,11.549020040197734,76,-16,-65.8906,45.831524430679806,44.0,-157.0,0.043333333333333335,18.627706663879895,27.0,-149.0,29.7626,26.666492856016895,77,-146.0,10.94,32.80446717547271,97.0,-162.0,-28.1682,43.03155480295826,84.0,-235.0,15.295,24.89145720255579,142.0,-70.0,-9.9974,29.688384820329986,140.0,-122,14.155,26.834014018281596,202.0,-41.0,-22.296,31.569649728813907,179.0,-102.0,14.458333333333334,25.022688315917527,199.0,-12,-22.1728,31.066472927579017,173.0,-70.0,12.386666666666667,19.109260117079945,153.0,-6.0,28.674,25.814385989211516,186.0,-23.0
1010078,8.328333333333333,13.55644485926241,81.0,-9.0,103.8432,49.98948903279568,232.0,-15.0,16.266666666666666,23.24346981173183,183.0,-17,-34.6712,29.11215365719273,157.0,-104.0,7.328333333333333,13.919669436528377,117,-14.0,-138.5144,39.03968484299022,49,-214.0,-13.431666666666667,17.782069542722585,9.0,-130.0,-34.3372,35.94498986173177,56.0,-180.0,0.065,7.221087752778893,16.0,-41.0,121.4296,42.42846501866406,188.0,-6.0,12.065,17.961554544823414,150,-15,-86.3424,23.687168725704637,72.0,-144.0,-6.288333333333333,18.963259140301336,28.0,-119.0,60.617,28.804192594134626,133,-79.0,5.9816666666666665,33.224759801823836,70.0,-177.0,32.2974,42.005563360583565,130.0,-187.0,5.315,49.36320264123875,72.0,-298.0,0.8384,57.50215548516421,114.0,-335,18.87,41.32424348974825,147.0,-199.0,96.5722,43.44425839118444,234.0,-138.0,14.896666666666667,40.61813210323138,338.0,-54,4.7418,62.51485209740162,413.0,-146.0,10.818333333333333,26.728798399645445,201.0,-18.0,14.4242,48.51175789806014,269.0,-78.0
1010087,3.865,22.170177604160052,159.0,-52.0,-130.5462,56.60771206787994,110.0,-261.0,8.938333333333333,18.3156908293287,122.0,-37,-124.6552,66.85331340300195,105.0,-251.0,4.411666666666667,10.165900380957682,29,-70.0,5.891,19.442487469457195,59,-97.0,-7.53,19.691345814849733,40.0,-140.0,127.8542,61.17821297128578,255.0,-107.0,-0.4633333333333333,14.596186336011046,104.0,-41.0,-67.9676,25.95799203020141,61.0,-136.0,6.89,9.776395041118173,43,-25,-59.1364,40.28032019535098,52.0,-140.0,-0.54,15.120903853054992,47.0,-105.0,2.5478,46.01342537955635,135,-166.0,8.895,36.63778525420626,207.0,-199.0,-120.1848,62.80815750330525,150.0,-391.0,13.47,35.50449408173562,239.0,-145.0,-28.6268,56.19194178670106,291.0,-226,13.675,33.81438611498564,249.0,-115.0,12.7828,49.21887467384845,329.0,-146.0,11.745,28.352835983959935,224.0,-79,-6.0362,43.54988506942355,271.0,-134.0,10.743333333333334,23.62556783562155,190.0,-51.0,2.0014,37.08727811581756,231.0,-94.0
1010209,3.96,21.79812836002211,158.0,-37.0,-256.5502,117.93502906244608,91.0,-401.0,9.958333333333334,19.41322394371653,123.0,-17,-48.6822,105.48840127312576,184.0,-292.0,5.385,13.973311764455364,111,-40.0,207.868,79.32818525593537,437,55.0,-8.186666666666667,19.39841459730379,19.0,-142.0,152.8662,104.61526417096121,331.0,-137.0,-1.0283333333333333,15.44412069005189,98.0,-74.0,-231.9618,85.5527272549508,3.0,-410.0,7.786666666666667,12.991965038267134,93,-10,79.8394,72.33967381485763,245.0,-107.0,12.881666666666666,18.365846851031822,61.0,-62.0,80.1356,53.34275970213765,209,-75.0,22.57,38.4623855214416,154.0,-135.0,97.4646,59.79711654285681,320.0,-134.0,19.995,25.32682981214454,110.0,-64.0,104.947,53.033297002920726,283.0,-60,24.245,36.436359701997304,206.0,-87.0,165.4402,70.88346791713847,457.0,-47.0,20.838333333333335,34.49611858198284,267.0,-31,229.3256,71.56934249132095,573.0,73.0,21.348333333333333,28.80642863243473,211.0,-10.0,244.6238,105.02769669739503,571.0,33.0
1010283,14.023333333333333,23.026422262744642,184.0,-2.0,-56.8912,31.20256019239447,140.0,-103.0,15.128333333333334,29.407570406652475,179.0,-33,-271.7208,52.93817193065888,-20.0,-377.0,0.43833333333333335,14.660475113568303,46,-35.0,-214.8296,53.37117352878799,-53,-323.0,-15.755,25.40364097919824,16.0,-181.0,164.5544,34.29014786553129,228.0,-23.0,6.581666666666667,12.38856988876799,101.0,-12.0,79.2204,34.78965685142641,214.0,-6.0,8.02,20.222007813271162,110,-32,-243.0226,50.80999989411533,-40.0,-349.0,-10.84,21.7762347525921,23.0,-151.0,123.6116,29.591193714346844,184,-50.0,12.411666666666667,41.88462960588553,91.0,-265.0,93.8246,54.3092352628906,197.0,-231.0,19.715,30.65458815577205,210.0,-115.0,105.3286,37.628268921649855,315.0,-42,18.508333333333333,30.497375797854406,227.0,-39.0,-65.8944,53.601142232605454,219.0,-171.0,16.893333333333334,28.80003395059727,205.0,-20,-68.2898,52.52266383153086,208.0,-167.0,14.69,25.980580568314224,191.0,-20.0,64.5896,48.156320165062446,304.0,-42.0
1010341,5.503333333333333,18.22443384275322,137.0,-23.0,12.1168,21.082418214237187,160.0,-39.0,7.183333333333334,22.738727365932824,127.0,-71,-70.6064,26.90795196665848,74.0,-166.0,1.2333333333333334,12.970050972229147,29,-93.0,-82.7232,17.986177519417517,-31,-201.0,-7.421666666666667,19.62380859794777,38.0,-125.0,29.492,22.440996769305947,91.0,-95.0,1.885,10.949966894927124,84.0,-22.0,47.6724,14.253191861474397,151.0,10.0,4.416666666666667,16.103614156110698,72,-75,-76.4186,20.31861644010241,16.0,-172.0,-7.226666666666667,17.704009589795064,19.0,-125.0,18.2674,21.916000940865104,68,-120.0,-2.965,28.341614427081133,40.0,-204.0,4.6044,32.673614747070765,56.0,-220.0,3.953333333333333,28.17820355444178,85.0,-193.0,-4.8552,34.90138439890315,99.0,-237,8.415,31.178348924641067,169.0,-155.0,-1.358,35.07909685268422,189.0,-179.0,7.933333333333334,33.79115597641226,222.0,-118,-26.8596,41.310626814900786,201.0,-185.0,7.4383333333333335,30.42147592116829,206.0,-72.0,-138.2298,59.30009605354783,138.0,-289.0
1010449,11.603333333333333,37.717935462529695,300.0,-10.0,-13.8632,42.23587202556614,309.0,-65.0,4.943333333333333,18.559457307678898,126.0,-16,2.9274,23.599951890628926,162.0,-40.0,-7.115,25.554551616753784,43,-195.0,16.7906,37.36498296052067,118,-221.0,-9.346666666666666,26.894977639370186,5.0,-213.0,5.7086,28.6602387645323,35.0,-211.0,9.106666666666667,30.86020018657616,238.0,-25.0,-15.084,38.09470493388812,263.0,-87.0,-0.795,11.91971650949244,44,-90,10.1112,23.03498284262439,98.0,-114.0,-6.615,28.692103007622148,5.0,-220.0,59.9772,36.643900995390766,101,-197.0,-2.256666666666667,15.963315932335473,29.0,-96.0,-205.6906,73.1405938698887,-59.0,-408.0,12.556666666666667,45.3986430291577,122.0,-251.0,-6.496,53.61612802133328,139.0,-304,20.446666666666665,40.89678661650027,207.0,-109.0,24.8102,47.38553129342331,291.0,-138.0,20.098333333333333,55.93947917665623,455.0,-46,66.8294,62.56561272488266,659.0,-23.0,14.291666666666666,46.919327189217974,383.0,-15.0,44.4146,55.16041249700731,525.0,-24.0
1010728,9.456666666666667,14.335670739646456,81.0,-27.0,10.5272,16.727882715992482,99.0,-41.0,15.681666666666667,24.068035452765052,163.0,-7,38.9574,31.4176126597805,215.0,-14.0,5.508333333333334,15.933610091738643,113,-25.0,28.4302,19.83475555584187,155,-17.0,-13.7,18.20064101435258,3.0,-122.0,-24.4894,23.129511184631635,12.0,-151.0,1.5133333333333334,9.203250633456758,38.0,-68.0,-8.7084,9.47927051201726,30.0,-84.0,10.795,19.07894935087709,129,-13,33.939,24.905800107605458,179.0,-13.0,-3.19,22.55852905961143,14.0,-146.0,1.392,22.416751236519534,27,-154.0,8.685,59.081884773027795,120.0,-344.0,-29.5808,58.45989968653726,86.0,-403.0,13.403333333333334,44.94278572684262,123.0,-250.0,-46.7416,46.3432328332843,81.0,-324,15.645,33.0438442325748,144.0,-115.0,-6.4516,33.72443709596944,129.0,-148.0,16.161666666666665,31.30961828611493,212.0,-41,14.9618,31.607744948983626,222.0,-58.0,14.761666666666667,28.869618353710337,219.0,-4.0,-3.1858,29.174606738737715,213.0,-33.0
1010880,16.77,33.99657482747343,250.0,-19.0,-129.4086,38.89054957235755,162.0,-194.0,6.416666666666667,15.287240503839213,105.0,-8,-103.1272,21.659986614954313,22.0,-139.0,-10.921666666666667,23.115987192609552,16,-213.0,26.2814,24.688066227228084,71,-201.0,-12.661666666666667,23.767005081742116,11.0,-164.0,116.5074,28.957112170242393,161.0,-80.0,13.585,28.036276054426345,229.0,-18.0,-77.5974,30.711511086887278,179.0,-130.0,-1.9416666666666667,9.737295854371252,26,-93,-38.1774,12.700816085590722,-1.0,-147.0,-7.575,29.08735764898558,45.0,-198.0,14.3652,28.65949456916503,84,-190.0,-2.71,68.89755123853581,107.0,-386.0,70.2094,63.38016055233688,195.0,-334.0,8.063333333333333,56.513591187332,135.0,-293.0,1.1532,52.33771230919441,148.0,-312,13.848333333333333,48.958948762089335,279.0,-167.0,40.057,45.71568386232454,326.0,-148.0,12.818333333333333,43.79815822484878,312.0,-104,-73.4726,45.77163804409888,259.0,-212.0,14.791666666666666,37.20571099381861,280.0,-43.0,-131.5162,39.10500399641969,159.0,-212.0
1010914,11.673333333333334,18.91330983431744,144.0,-38.0,75.1788,32.42675485706209,241.0,-35.0,9.785,15.328365046540354,108.0,-39,-41.9966,19.085580641940133,75.0,-101.0,-2.2483333333333335,7.340299532186831,10,-63.0,-117.1754,22.11192065018324,-48,-214.0,-11.92,16.85992091717317,37.0,-126.0,-16.3414,24.19703382731032,67.0,-153.0,6.683333333333334,12.109351299259961,92.0,-18.0,96.4228,26.067796994759647,214.0,14.0,3.8066666666666666,7.495284443494382,40,-27,-79.338,12.796849456018462,-23.0,-134.0,-6.8966666666666665,27.57884434771616,12.0,-204.0,-4.3576,34.49498691462283,50,-223.0,-3.27,37.6414722524682,46.0,-246.0,-36.4162,49.03890473450646,65.0,-308.0,1.4083333333333334,37.148955982040135,56.0,-254.0,-89.025,52.58201189570441,32.0,-392,2.1433333333333335,27.827374811305663,69.0,-198.0,-154.7342,62.683126520300505,17.0,-417.0,2.6166666666666667,24.521141671808206,120.0,-144,-159.0418,65.52320545241967,67.0,-390.0,4.78,19.343688031672418,145.0,-57.0,-67.5038,35.9495589063343,125.0,-172.0
1011045,22.477083333333333,40.38739850320641,300.25,-5.0,58.4094,56.926631655491434,443.0,-26.0,11.008333333333333,12.21699351540941,103.0,-4,46.2556,20.47661760740772,173.0,4.0,-15.439166666666665,33.320224047199254,8,-285.25,-12.1538,52.19801285068235,72,-360.0,-22.88625,26.602148983786165,1.0,-223.0,-52.0872,33.89608821324372,-4.0,-274.0,16.97416666666667,37.793729491661566,264.25,-5.0,35.5254,53.646813091179986,398.0,-45.0,-6.52,13.217019331150274,15,-119,17.3002,27.6002333316224,72.0,-152.0,-17.739583333333332,13.419337622335249,15.0,-102.0,26.647,19.140793896805846,91,-77.0,3.405,24.883615258505614,147.0,-56.0,14.312,31.54051768757133,212.0,-69.0,3.4433333333333334,24.991000824741338,168.0,-23.0,28.815,35.37605369455446,229.0,-21,16.566666666666666,35.436923618671464,233.0,-6.0,1.4864,46.664725596964566,258.0,-52.0,28.861666666666668,41.700589890578556,327.0,-3,8.0664,52.035749163820064,370.0,-49.0,26.782083333333333,39.159819401467566,340.0,-1.0,-1.6572,48.01006652942693,380.0,-54.0
1011104,11.571666666666667,18.05911211980134,149.0,-20.0,15.5668,21.23448934540221,169.0,-28.0,14.286666666666667,16.681261609629196,116.0,-39,74.0508,38.3980080129165,225.0,-20.0,2.105,13.105748420699472,23,-100.0,58.484,37.307556124731626,135,-96.0,-14.166666666666666,16.083601034041546,11.0,-121.0,-44.5588,24.796591349619003,7.0,-178.0,4.411666666666667,13.400828228964889,122.0,-22.0,-21.2094,23.515160038579367,125.0,-71.0,8.4,12.095040305844377,58,-45,66.5214,36.33469887091401,164.0,-33.0,-3.2116666666666664,17.044457473195077,55.0,-118.0,15.195,24.48530528704921,93,-120.0,5.183333333333334,20.230498153914933,76.0,-134.0,25.4418,25.440695995982498,108.0,-137.0,8.865,18.448670457967065,99.0,-104.0,17.981,31.976176115977346,138.0,-136,10.153333333333334,20.751220579897357,152.0,-75.0,-19.2672,27.056559355542603,147.0,-119.0,10.831666666666667,19.411680261006662,152.0,-53,19.416,25.610008668487403,174.0,-67.0,10.31,18.878750841444287,146.0,-36.0,-14.0776,22.861705497184587,132.0,-83.0
1011153,1.125,11.873894685401249,56.0,-64.0,77.2446,56.47577862092739,219.0,-70.0,-1.4616666666666667,3.518787275310755,7.0,-15,17.5294,25.381070419507527,74.0,-50.0,-3.216666666666667,13.687818996790135,66,-51.0,-59.7152,80.74962841375805,132,-238.0,-0.9483333333333334,5.460066900282042,30.0,-32.0,-47.1404,16.934482213519253,14.0,-104.0,1.9333333333333333,12.642213238019503,53.0,-65.0,68.7272,68.50847232393961,229.0,-99.0,-2.145,7.9217406546793745,35,-23,-20.8452,52.768995034584464,99.0,-129.0,-2.4183333333333334,18.02331815238865,40.0,-120.0,107.5736,43.402421396046556,212,-66.0,-0.99,21.53276340835054,68.0,-149.0,57.0052,34.630720075678475,164.0,-120.0,2.4,19.14836807667954,87.0,-121.0,78.8774,41.89045678003524,218.0,-90,3.8533333333333335,16.405745606003066,93.0,-87.0,90.4002,44.28379884291771,236.0,-57.0,5.965,13.401260201936234,91.0,-46,140.6118,55.03391954749362,306.0,11.0,5.116666666666666,10.620093638423764,81.0,-16.0,70.5314,37.54103640071755,208.0,6.0
1011269,16.418333333333333,20.38389880654718,153.0,-5.0,-37.0828,24.60573803323119,118.0,-97.0,7.116666666666666,17.796059176745345,70.0,-49,-118.6438,51.543543936753125,19.0,-249.0,-9.786666666666667,16.913539612459072,22,-135.0,-81.561,43.629827858931556,15,-270.0,-12.898333333333333,17.22144004496204,21.0,-94.0,78.1158,33.9901337208314,163.0,-48.0,12.83,16.494173718821646,143.0,-14.0,22.4868,24.298901739790626,179.0,-31.0,-1.17,14.05267827379061,35,-69,-99.8498,46.14446922394925,8.0,-231.0,-8.46,11.786223596498866,20.0,-53.0,17.9412,14.525678729753043,61,-48.0,7.691666666666666,12.319899778632761,52.0,-17.0,138.7576,80.99842987515252,302.0,-25.0,6.598333333333334,18.491178001654973,58.0,-96.0,8.4878,37.190851713290996,97.0,-168,17.828333333333333,36.87861436147272,228.0,-116.0,-16.514,45.509043101344155,216.0,-189.0,17.961666666666666,33.59732425688424,219.0,-84,-48.936,62.84484309790264,210.0,-233.0,16.768333333333334,29.723245626202324,205.0,-43.0,-50.4508,46.04310132213077,173.0,-161.0
1011340,9.53,22.427938677759336,168.0,-14.0,156.7948,99.61795166013002,432.0,-54.0,22.768333333333334,23.69897319622847,178.0,-10,-94.4374,39.802181865319895,133.0,-176.0,12.578333333333333,8.262396578609756,39,-19.0,-251.2322,123.37630843545288,18,-426.0,-17.313333333333333,22.75298857049089,7.0,-172.0,-30.9296,44.14441577187311,61.0,-221.0,-1.695,11.950396436938817,81.0,-21.0,204.262,110.34775283620414,428.0,-26.0,17.876666666666665,13.721204595645222,106,-7,-172.5848,76.95768453481432,76.0,-298.0,-17.739583333333332,24.72135918593474,13.0,-200.0,-129.997,64.48860202392358,39,-374.0,3.9966666666666666,22.39039948033283,60.0,-159.0,-85.1046,57.93229547359572,95.0,-308.0,24.79,25.216117200446757,119.0,-63.0,-15.9842,53.17303029130463,161.0,-178,25.73,31.5286182168941,205.0,-19.0,17.9762,57.80591348261871,269.0,-87.0,25.555,39.05662950554404,293.0,-10,46.2222,60.03579288357904,369.0,-50.0,21.666666666666668,31.11921521432627,244.0,-11.0,4.0704,60.23377992322912,294.0,-98.0
1011465,11.686666666666667,25.263712228323765,196.0,-41.0,16.9968,38.46965544113958,241.0,-77.0,9.155,17.728065555308998,134.0,-4,-64.1956,22.15826122781298,88.0,-112.0,-2.785,12.025200275532491,74,-81.0,-81.1924,31.91764061205026,35,-196.0,-11.576666666666666,21.030155861418518,9.0,-164.0,23.8534,27.037749692605708,75.0,-160.0,7.033333333333333,17.663867702805696,137.0,-57.0,49.3392,33.56754598358361,217.0,-55.0,3.385,8.278694039520968,56,-7,-72.4424,19.627365646973615,2.0,-137.0,-11.87,20.047853584195323,6.0,-162.0,-10.609,33.422802381009284,44,-196.0,-3.38,31.30386983532015,23.0,-215.0,3.8502,38.65394365339713,61.0,-239.0,10.156666666666666,37.160984767480116,125.0,-253.0,-45.7292,42.84394784984222,99.0,-338,12.533333333333333,34.509547793167165,260.0,-130.0,17.9972,44.89724704433446,309.0,-165.0,12.833333333333334,39.04495983976535,337.0,-56,-6.621,51.4390722991774,366.0,-130.0,11.413333333333334,35.656778068443344,301.0,-11.0,-68.8992,56.50325158218773,277.0,-151.0
1011701,14.375,22.752824916187148,185.0,-15.0,33.7272,30.026781048923638,227.0,-19.0,14.258333333333333,23.62071683689741,191.0,-4,104.2862,38.564479635540266,328.0,29.0,-0.5966666666666667,5.115281319410659,30,-25.0,70.559,15.95420066941619,131,8.0,-15.521666666666667,23.078551309723835,3.0,-189.0,-68.7622,33.628625472356134,-7.0,-267.0,7.088333333333333,11.521018352944711,90.0,-20.0,-18.167,14.362782146924042,87.0,-52.0,6.985,12.73701070371956,98,-7,87.6676,25.407304269441887,225.0,37.0,-8.963333333333333,15.930536365386097,14.0,-144.0,-31.5934,20.507990551002308,13,-180.0,8.348333333333333,20.07088265511897,95.0,-104.0,-28.3384,24.38144141432167,65.0,-152.0,9.63,19.442387542000425,95.0,-82.0,-14.312,29.938294139780243,99.0,-135,15.646666666666667,28.363094957277767,204.0,-27.0,-10.6502,34.82501744378601,181.0,-75.0,17.591666666666665,34.733772190125784,276.0,-15,-36.5548,44.69032777861447,250.0,-102.0,16.881666666666668,30.505207160235592,248.0,-1.0,-62.6712,37.769705989853826,177.0,-106.0
1011780,10.851666666666667,29.706334855642417,191.0,-30.0,-37.2194,50.17430481471567,207.0,-140.0,13.296666666666667,28.36732842941369,184.0,-117,281.6458,78.1578220164815,547.0,68.0,1.9166666666666667,43.898781937037334,143,-285.25,318.8652,61.57253144836584,529,-34.0,-13.236666666666666,19.063944735780392,6.0,-134.0,-121.9618,58.01692460618712,-11.0,-315.0,4.216666666666667,34.70614338829495,234.0,-62.0,-177.7894,40.34242738904044,84.0,-279.0,7.81,33.846376960220326,160,-188,300.5058,65.72374887633845,533.0,33.0,-14.063333333333333,50.62222162471953,48.0,-312.0,-110.8004,151.76023514700978,168,-644.0,-3.035,66.10582759232854,91.0,-392.0,-126.1436,133.62010843821375,180.0,-685.0,4.495,44.84896849426974,94.0,-286.0,-134.822,133.0330271624306,193.0,-595,12.365,30.719349629617273,123.0,-114.0,-198.2866,116.4271105045556,116.0,-509.0,14.425,38.95524408429071,256.0,-20,-135.4816,99.7582400678761,255.0,-308.0,12.126666666666667,42.90991286663517,282.0,-23.0,-177.1232,101.32513025779932,249.0,-319.0
1011998,12.555,18.93612882824787,119.0,-17.0,95.5766,24.90702174969942,222.0,36.0,11.143333333333333,23.930025537433558,131.0,-72,69.3072,39.158473261351745,230.0,-53.0,-2.06,11.426273816661901,20,-57.0,-26.2694,46.365858383513185,61,-148.0,-13.021666666666667,20.825894071777302,42.0,-126.0,-82.192,23.221721210969697,-5.0,-210.0,7.008333333333334,10.07876962839325,72.0,-13.0,61.174,31.654802542426324,170.0,-6.0,4.845,16.188709285589553,72,-64,21.7732,41.06542781659532,135.0,-97.0,2.855,17.188192895124256,90.0,-82.0,13.9446,21.6719249454219,130,-96.0,18.366666666666667,25.86340185581849,104.0,-49.0,258.998,51.78772437556993,419.0,84.5,18.6,34.05451511914389,193.0,-76.0,-38.78,38.789070625628554,161.0,-159,17.506666666666668,32.93675690707201,228.0,-54.0,-33.322,33.7862740769088,185.0,-117.0,17.27166666666667,29.689412207422063,215.0,-43,-29.9858,31.774348118568852,186.0,-113.0,15.521666666666667,23.66198492425256,167.0,-31.0,-15.3486,25.301475807549252,154.0,-78.0
1012029,13.09,24.12478462770877,164.0,-18.0,31.4674,27.21110319777572,197.0,-25.0,9.053333333333333,16.2613187930404,62.0,-65,29.502,22.69584975276317,104.0,-71.0,-4.465,19.696330665041817,28,-170.0,-1.9654,25.008962450289697,46,-186.0,-12.29,18.030508404738157,40.0,-99.0,-30.24,21.716095413310377,44.0,-128.0,8.381666666666666,20.512743938558998,162.0,-18.0,16.966,23.544945189997787,183.0,-19.0,2.37,13.465502837497999,27,-97,14.0186,19.62344144231587,58.0,-106.0,-10.321666666666667,11.161460353476253,10.0,-65.0,-16.1946,14.020896220998143,16,-84.0,-0.18333333333333332,8.000888458744436,54.0,-13.0,-1.9566,13.818260642893437,63.0,-21.0,5.211666666666667,29.21141667035149,88.0,-184.0,-50.0116,34.27856860255399,57.0,-265,14.285,34.246904117988045,172.0,-162.0,33.9638,50.90963061700606,244.0,-209.0,13.798333333333334,32.391063539535445,191.0,-128,-64.7828,36.63307827851763,132.0,-222.0,11.963333333333333,25.969571724530915,160.0,-81.0,1.7448,29.332420168816622,167.0,-104.0
1012053,2.8266666666666667,17.65663111191436,137.0,-16.0,-186.606,72.8421166908266,77.0,-298.0,-0.8516666666666667,4.285206788735197,9.0,-9,6.183,37.916834137359096,76.0,-56.0,-4.16,15.220635115964553,16,-129.0,192.789,37.76804573975201,250,-7.0,-2.1683333333333334,10.315199007074733,10.0,-74.0,90.4646,54.91077441486325,176.0,-74.0,3.3016666666666667,16.31126391655642,133.0,-16.0,-189.456,54.83396451105829,42.0,-273.0,-2.0833333333333335,6.965370692855398,10,-60,99.7394,10.276861760284605,120.0,29.0,-4.373333333333333,22.473776323133194,34.0,-157.0,-17.8954,26.62254794042073,38,-188.0,11.398333333333333,34.965263675380584,83.0,-207.0,2.1048,41.53765300254698,100.0,-241.0,14.041666666666666,21.310324506106323,122.0,-66.0,16.2302,27.23815720565545,146.0,-87,13.075,24.68905374857449,202.0,-18.0,64.2124,26.7327530613665,270.0,18.0,10.62,30.206328255295556,270.0,-6,-2.478,34.60142072227671,280.0,-40.0,6.535,16.60177023693558,144.0,-2.0,37.819,20.00711470952271,180.0,8.0
1012223,-1.5616666666666668,23.677757436510376,159.0,-74.0,-222.842,113.95091678437694,100.0,-442.0,10.935,13.129385933850829,90.0,-8,72.9458,24.549820006672146,179.0,15.0,12.138333333333334,21.81985022608746,122,-102.0,295.7878,131.88534706767086,575,-27.0,-6.0633333333333335,15.692333230664655,32.0,-117.0,75.1962,49.44902936924041,180.0,-93.0,-7.121666666666667,21.809559002622887,129.0,-92.0,-259.0668,122.63751765980915,63.0,-501.0,11.81,13.55583146349447,97,-39,184.6214,75.8406359548758,364.0,9.0,0.12333333333333334,36.3519571534861,63.0,-191.0,23.2868,42.56306551177911,93,-187.0,7.965,53.92028475753196,112.0,-307.0,173.309,64.83222901458811,295.0,-173.0,4.381666666666667,26.449751049027956,52.0,-136.0,195.4284,47.995979763309336,290.0,-9,8.796666666666667,39.75464738730415,91.0,-226.0,174.0302,54.43612116931183,298.0,-116.0,12.243333333333334,37.94413598377957,162.0,-200,180.5408,62.73991660306858,372.0,-115.0,13.366666666666667,29.69695083487342,208.0,-119.0,56.8006,38.05121863541298,277.0,-113.0
1012295,8.445,21.61234928615273,103.0,-74.0,0.6742,24.8412571010406,111.0,-107.0,11.821666666666667,23.31429884331835,145.0,-24,85.737,40.807595261176566,246.0,-18.0,2.8983333333333334,20.016692964179228,153,-19.0,85.0628,30.21230967933435,264,13.0,-11.343333333333334,20.130046917205355,41.0,-117.0,-42.9578,30.22128420765736,55.0,-172.0,2.515,17.28158292325484,53.0,-103.0,-41.9434,18.66976690909664,23.0,-162.0,7.58,18.861519910477345,132,-13,85.6364,33.686837118376076,238.0,5.0,8.48,44.67049287094707,199.75,-204.0,-8.2422,45.04927012904871,297,-245.0,1.5383333333333333,31.420935651603724,145.0,-180.0,1.5788,33.61875950358668,173.0,-194.0,-5.493333333333333,15.439126342582414,44.0,-61.0,44.3522,22.89072640088121,126.0,-26,14.275,46.77352572057545,369.0,-144.0,-26.1746,46.92679953757767,356.0,-202.0,17.166666666666668,46.57566126446539,365.0,-106,-13.1316,46.33992966589397,356.0,-151.0,16.676666666666666,39.91176253798984,291.0,-75.0,-97.12,41.44941977880993,209.0,-207.0
1012335,10.966666666666667,21.137775558358918,159.0,-17.0,224.7272,92.90587053658126,471.0,23.0,11.068333333333333,14.821617002053303,101.0,-48,-111.8868,27.705616502074086,11.0,-205.0,-0.145,16.79059185972907,27,-137.0,-336.614,81.28611815064119,-157,-554.0,-12.166666666666666,16.26167956338527,23.0,-125.0,-56.1716,55.20705528680189,78.0,-229.0,5.33,17.59141173034918,137.0,-18.0,280.922,86.17984170326608,497.0,96.0,5.586666666666667,11.761483277584036,32,-76,-224.0,39.104148117559085,-130.0,-345.0,-8.418333333333333,21.495891015623325,34.0,-138.0,-104.347,49.22816461132794,4,-318.0,2.0733333333333333,33.30317235473054,114.0,-172.0,-69.4954,55.32422958198334,100.0,-319.0,1.33,24.23766559166401,105.0,-127.0,-81.5174,45.95215008288513,86.0,-278,5.841666666666667,37.31192745698827,240.0,-168.0,-69.0642,60.82724782825539,231.0,-326.0,10.231666666666667,45.45046384679576,359.0,-158,-65.8994,73.5817917669854,370.0,-323.0,7.761666666666667,35.281367092119446,283.0,-108.0,-129.8676,75.23461218242572,249.0,-352.0
1012417,9.318333333333333,19.99634126256323,179.0,-18.0,160.196,26.051372017611666,356.0,103.0,3.598333333333333,12.845634688700885,105.0,-35,132.1812,35.527048379509374,267.0,10.0,-6.005,10.27983341304712,8,-89.0,-28.0148,24.015623684593326,43,-229.0,-7.626666666666667,16.02042307667171,25.0,-140.0,-145.9418,28.743973503327613,-77.0,-305.0,7.361666666666666,14.572720995827178,132.0,-6.0,94.3566,17.674247832368994,251.0,64.0,-0.9366666666666666,5.84516799492443,44,-28,52.329,27.38054709095492,141.0,-105.0,-0.05,38.13096947801528,80.0,-225.0,-132.2708,47.471240423650194,199,-379.0,8.511666666666667,52.32230114609087,124.0,-335.0,-70.917,63.30297395067628,508.0,-440.0,6.988333333333333,41.783228659621585,217.0,-243.0,-53.4488,47.44733268119505,341.0,-319,7.256666666666667,31.533539639917088,228.0,-144.0,12.011,35.51529359304242,256.0,-151.0,4.1033333333333335,19.083744973726258,156.0,-64,-39.5552,25.1170012732412,141.0,-137.0,2.2066666666666666,12.647158662016627,110.0,-33.0,9.2424,17.333702496581623,119.0,-117.0
1012548,5.593333333333334,21.559018736688575,138.0,-94.0,-48.438,39.5663563649725,131.0,-198.0,13.518333333333333,18.72528586044965,81.0,-37,-52.8714,50.58171272347349,88.0,-196.0,7.255,12.767144355728105,78,-92.0,-4.4334,30.690747212148484,120,-165.0,-10.713333333333333,19.146222139686518,57.0,-100.0,50.9068,42.7403101738862,192.0,-86.0,-1.1266666666666667,15.030101648211017,115.0,-84.0,-21.757,24.780741534506184,121.0,-151.0,10.568333333333333,11.770386451694023,56,-28,-28.403,36.86742452355467,68.0,-128.0,-7.06,11.994709945082734,51.0,-50.0,36.3422,31.025903679989725,143,-56.0,7.345,22.995636723807696,112.0,-110.0,17.4236,56.63121191569186,177.0,-197.0,11.27,27.870960394886527,79.0,-173.0,6.667,61.47040028338843,138.0,-241,16.626666666666665,38.56117160506869,150.0,-194.0,42.7642,76.51023590579237,279.0,-249.0,18.635,41.18144940382744,212.0,-169,96.1218,79.40666322645725,387.0,-207.0,15.926666666666666,37.03536088059026,225.0,-137.0,19.0842,66.1221862188479,314.0,-207.0
1012694,5.156666666666666,14.866700672606848,137.0,-14.0,-42.6902,21.69983004449574,137.0,-81.0,12.488333333333333,20.358614815900964,152.0,-22,54.9252,26.586756194767347,223.0,-5.0,6.675,10.89783044157567,84,-18.0,97.6154,15.636121093161181,189,53.0,-9.973333333333333,17.026820672756916,12.0,-144.0,-5.8638,22.971183024824825,36.0,-171.0,-0.8983333333333333,8.080717618022685,67.0,-46.0,-69.9022,13.454509844658036,36.0,-125.0,9.821666666666667,14.573601610064992,103,-20,76.5226,18.920948423374554,196.0,25.0,-2.625,25.705402318060173,29.0,-184.0,-18.4912,29.415735968355442,24,-227.0,7.948333333333333,47.709352652866244,97.0,-302.0,3.3312,59.24100527978911,131.0,-374.0,12.975,38.641700812291724,118.0,-228.0,-12.3434,42.275461871397695,111.0,-271,14.541666666666666,35.00287984183905,190.0,-157.0,-9.3834,41.0322166649573,199.0,-202.0,14.346666666666666,32.78373309364807,241.0,-68,-19.192,38.460747990646254,247.0,-147.0,10.706666666666667,26.741552352513537,212.0,-20.0,-75.239,42.82727961241526,171.0,-171.0
